time,voltage
0.0,-80.0
0.000296636813297951,-80.00258972939437
0.0012788484127527024,-80.0095389008971
0.0036964872454988904,-80.02200867449918
0.007729556304279564,-80.03720670375438
0.01386763821850983,-80.05464323311594
0.020005720132740098,-80.06894815827336
0.030991625165715228,-80.09048390846237
0.048477316780374785,-80.1177951407651
0.08142760109044733,-80.15710494504596
0.11437788540051988,-80.1868152522708
0.14732816971059243,-80.21162532349884
0.18027845402066497,-80.2334738564468
0.23596465317956994,-80.26615992839201
0.2916508523384749,-80.29454413695696
0.3473370514973798,-80.31977240844172
0.44383609901078586,-80.35850895287666
0.5403351465241919,-80.3922946851338
0.6955058379007575,-80.43959313027278
0.8506765292773231,-80.48102969724026
1.12975493004387,-80.54657325258029
1.408833330810417,-80.60603674004778
1.687911731576964,-80.66208743626342
1.966990132343511,-80.71545656533051
2.246068533110058,-80.76649307860754
2.7364610928787654,-80.8515131615563
3.482468650147816,-80.97183771571328
4.2284762074168665,-81.08365968572745
4.9744837646859175,-81.18821807854012
5.7204913219549685,-81.28609776155979
6.4664988792240194,-81.37776852715497
7.686537229119633,-81.5154308514062
8.906575579015247,-81.63931635807288
10.12661392891086,-81.7507916688024
12.036342014388842,-81.90300961252221
13.946070099866823,-82.0313683208441
15.855798185344804,-82.13920820194376
19.067769644361572,-82.28230462239014
22.27974110337834,-82.38734425794931
25.491712562395104,-82.4637110911572
28.70368402141187,-82.51882321345225
31.915655480428637,-82.55845793472989
35.127626939445406,-82.58705072980322
40.05899915410312,-82.6170369646895
44.99037136876083,-82.63745758846063
49.92174358341855,-82.65356146461374
54.85311579807626,-82.668496485586
63.166531317756295,-82.69520323150763
71.47994683743633,-82.72593661991463
79.79336235711637,-82.76088621820219
88.1067778767964,-82.79825035608333
96.42019339647644,-82.83528090447491
104.73360891615647,-82.86951058985184
113.0470244358365,-82.89960958738003
121.36043995551654,-82.9252976248482
129.67385547519658,-82.94647353955283
137.9872709948766,-82.96303194331972
146.30068651455665,-82.97518831923605
154.61410203423668,-82.98356216961493
162.92751755391672,-82.98888508774286
171.24093307359675,-82.9918185220106
179.55434859327679,-82.99283426901248
187.86776411295682,-82.99235441335428
196.18117963263686,-82.99083045559537
204.4945951523169,-82.98869510049559
212.80801067199693,-82.98622312073611
221.12142619167696,-82.98360530526641
229.434841711357,-82.98094873368193
237.74825723103703,-82.97838061428388
246.06167275071707,-82.97601037123182
254.3750882703971,-82.9738848786021
262.68850379007716,-82.97196519731973
271.0019193097572,-82.97024782655605
279.3153348294373,-82.96873318808456
287.62875034911735,-82.96744884443143
295.9421658687974,-82.96636449154555
304.2555813884775,-82.96544863712467
312.56899690815754,-82.96465916596767
320.8824124278376,-82.9640106849407
329.19582794751767,-82.96347635878956
337.50924346719773,-82.96305135625863
345.8226589868778,-82.96269236303074
354.13607450655786,-82.96240281894501
362.4494900262379,-82.96215808195868
370.762905545918,-82.96197778626417
379.07632106559805,-82.96182383947287
387.3897365852781,-82.96170960961514
395.7031521049582,-82.96160395862053
404.01656762463824,-82.9615329678447
412.3299831443183,-82.96146462487948
420.64339866399837,-82.96142735302875
428.95681418367843,-82.96138074524904
437.2702297033585,-82.96135888101185
449.77153774167294,-82.96130789613241
462.2728457799874,-82.96124083542341
474.77415381830184,-82.96121563384247
487.2754618566163,-82.96125266249176
499.77676989493074,-82.96129587212303
512.2780779332452,-82.96130175120852
524.7793859715596,-82.96128101723838
545.3029184488828,-82.96124274474447
565.826450926206,-82.96123748448578
586.3499834035292,-82.96125827198647
623.1552491178537,-82.96128658851164
659.9605148321782,-82.96128193421164
696.7657805465027,-82.96130576313217
700.0,-82.96130763035585
700.0,-82.96130763035585
700.0000524525366,-82.94541950819159
700.000136629178,-82.92081159271818
700.0003185384417,-82.87047992505386
700.0005004477053,-82.82258685910456
700.0008695056545,-82.73116685003252
700.0012385636036,-82.64643011145321
700.0021514037527,-82.46032346928529
700.0030642439018,-82.30079340036286
700.0039770840509,-82.16033499445908
700.0048899242,-82.03367991798962
700.0063207202991,-81.85384881512385
700.0077515163981,-81.69184520099942
700.0091823124972,-81.54299893558994
700.0115720002883,-81.31496843258371
700.0139616880795,-81.10805725605744
700.017714905452,-80.81519336394321
700.0214681228244,-80.55246742105118
700.02794069212,-80.15102743844768
700.0344132614155,-79.79528183873653
700.040885830711,-79.47233779839446
700.0473584000065,-79.17526762875998
700.053830969302,-78.89935138065248
700.0643421568026,-78.48767508323493
700.0748533443032,-78.11073676272866
700.0853645318037,-77.7604850938356
700.1014905554476,-77.26412264393541
700.1176165790915,-76.80691017674745
700.1337426027354,-76.38104993131395
700.1633790136062,-75.6619586557179
700.193015424477,-75.00836659273405
700.2226518353478,-74.40767257511294
700.2522882462187,-73.84925926984938
700.2819246570895,-73.32452487672344
700.3115610679603,-72.82779662131409
700.3593615207002,-72.07616232069276
700.4071619734401,-71.37601765381694
700.45496242618,-70.71850097326023
700.50276287892,-70.09606336799834
700.5505633316599,-69.50278218410455
700.6300674148466,-68.56894945244237
700.7512048605292,-67.24360539697823
700.8723423062119,-66.00581202238152
700.9934797518945,-64.83266341415813
701.1146171975771,-63.70574284541361
701.2357546432597,-62.61040429442952
701.3568920889423,-61.53539511488311
701.478029534625,-60.471239943904585
701.6783677915145,-58.703545868129325
701.878706048404,-56.85123162899445
701.9287906126264,-56.357266028884744
701.9788751768488,-55.83312266090839
702.0289597410712,-55.26184400733912
702.0790443052936,-54.60694525990173
702.0915654463491,-54.42322087900096
702.1040865874047,-54.22740795931218
702.1235014647287,-53.89192029753537
702.1311390614633,-53.746312337195995
702.1387766581978,-53.5908293079373
702.1518207271292,-53.29638079778902
702.1648647960607,-52.95313135397402
702.1779088649921,-52.54044878821882
702.1909529339235,-52.02754591646526
702.1993906683255,-51.622936182960174
702.2078284027274,-51.14610530534385
702.2162661371293,-50.587997216156154
702.2247038715312,-49.94808392873666
702.2331416059332,-49.23755263149493
702.2387627702068,-48.735693024612964
702.2443839344804,-48.21965199556203
702.2500050987541,-47.69536471286497
702.2556262630277,-47.16718516734316
702.2612474273013,-46.638618585634454
702.266868591575,-46.11249004762471
702.2724897558486,-45.59075654568561
702.2781109201222,-45.07457171375202
702.2865547896561,-44.31150183968829
702.2949986591899,-43.56493540963178
702.3034425287237,-42.83621872221863
702.3118863982576,-42.126173214617374
702.3203302677914,-41.435304682328386
702.3333229617297,-40.409758151905095
702.3463156556679,-39.42895170845656
702.3593083496062,-38.49065933778434
702.3723010435444,-37.59189018886005
702.3852937374827,-36.728223103783044
702.398286431421,-35.89468592093614
702.4112791253592,-35.08489468539111
702.4242718192975,-34.292331682872366
702.4372645132357,-33.509050785198255
702.450257207174,-32.72690990191472
702.4632499011122,-31.935715190902705
702.4762425950505,-31.12482808965562
702.4892352889888,-30.280839882856416
702.502227982927,-29.38927092728014
702.52207583527,-27.890574666538637
702.541923687613,-26.152566309647423
702.561771539956,-24.06074864639405
702.581619392299,-21.433604968555635
702.601467244642,-18.033819226577123
702.621315096985,-13.537749532860449
702.641162949328,-7.5842178101923325
702.6522831670906,-3.5752900677255313
702.6634033848532,0.8496119324128368
702.6745236026157,5.452933580442519
702.6856438203783,9.971741190999309
702.6967640381409,14.083521421748351
702.7078842559035,17.553712064469018
702.7190044736661,20.284513398416877
702.7301246914287,22.305611687608035
702.7412449091913,23.70641341533606
702.7523651269539,24.593010693978787
702.7634853447165,25.06758163812705
702.7746055624791,25.218893408094218
702.7857257802417,25.11923301725815
702.7968459980043,24.825506339240853
702.8079662157669,24.381843429881176
702.8190864335295,23.822292079832266
702.8302066512921,23.173207958252462
702.8413268690547,22.455165589424674
702.8524470868173,21.68436887118044
702.8635673045799,20.87367143280496
702.8746875223425,20.032708039698015
702.8858077401051,19.17106498568227
702.8969279578677,18.29471627149755
702.9080481756303,17.408572578850645
702.9191683933929,16.51712630690376
702.9302886111554,15.623899762335826
702.941408828918,14.731769618149213
702.9581784930383,13.393648172641763
702.9749481571586,12.070374528588541
702.9917178212788,10.76674243598455
703.0084874853991,9.486381807814892
703.0252571495193,8.23217876010929
703.0420268136396,7.005822211270205
703.0587964777599,5.808230602794125
703.0755661418801,4.639684732587379
703.0923358060004,3.4996850594723363
703.1091054701207,2.387250025239093
703.1258751342409,1.3010803968335993
703.1426447983612,0.2395899828897319
703.1594144624814,-0.7989509901037694
703.1761841266017,-1.816326089479955
703.192953790722,-2.814336778315691
703.2097234548422,-3.79476738116093
703.2264931189625,-4.759366297088747
703.2432627830827,-5.709836129630517
703.260032447203,-6.647828597095861
703.2768021113233,-7.574947051347522
703.2935717754435,-8.49276696861216
703.3103414395638,-9.402802193513171
703.327111103684,-10.306573393593553
703.3438807678043,-11.205583372136996
703.3606504319246,-12.101319458755723
703.3774200960448,-12.995235152294793
703.3941897601651,-13.888759545994262
703.4109594242854,-14.783283519790988
703.4277290884056,-15.680150781657606
703.4444987525259,-16.5806337088881
703.4612684166461,-17.485915754258034
703.4780380807664,-18.397061072970942
703.4948077448867,-19.314982455599235
703.5115774090069,-20.240394542716743
703.5283470731272,-21.173763647441394
703.5451167372474,-22.1152459796838
703.5618864013677,-23.06462426075145
703.578656065488,-24.021238617927118
703.5954257296082,-24.983923375534278
703.6121953937285,-25.950950774862417
703.6289650578487,-26.919994942114958
703.645734721969,-27.88812067980992
703.6625043860893,-28.851809812315874
703.6792740502095,-29.807028668135498
703.6960437143298,-30.749342494148877
703.71281337845,-31.67407190011458
703.7394348198067,-33.09443009948427
703.7660562611633,-34.4409896021087
703.7926777025199,-35.69847714248522
703.8192991438765,-36.8569810548123
703.8459205852331,-37.911040178419256
703.8725420265897,-38.86069989432113
703.8991634679463,-39.710082459902765
703.9257849093029,-40.46630844024661
703.9524063506595,-41.138009531340536
703.9790277920162,-41.73451709854995
704.0,-42.157536187896746
704.0,-42.157536187896746
704.00000023147,-42.157613986694365
704.0000433213185,-42.171541294491405
704.0001222863174,-42.19619994074761
704.0002928401477,-42.24673432540545
704.0005591566368,-42.32025113737659
704.0008254731258,-42.389166280389915
704.0013013786844,-42.50401712886347
704.001777284243,-42.609369105938214
704.0028895895952,-42.82611926745681
704.0040018949474,-43.010720758739836
704.0051142002995,-43.17289229910523
704.0062265056517,-43.31918509910524
704.0079157886704,-43.52098267072956
704.0096050716891,-43.703442037250646
704.0112943547077,-43.871314085811505
704.0141213884999,-44.1286709228632
704.0169484222921,-44.36150251299232
704.0214698101985,-44.69523500432093
704.0259911981049,-44.99246399429519
704.0336034964575,-45.433490267075065
704.0412157948102,-45.822929918388354
704.0488280931629,-46.17551247362931
704.0564403915156,-46.49898305025733
704.0640526898683,-46.79847167780565
704.0761752520419,-47.23495217102443
704.0882978142156,-47.63240091378024
704.1004203763893,-47.9991127525472
704.1187988677775,-48.50751848924307
704.1371773591658,-48.96938924509873
704.155555850554,-49.39300406533357
704.1739343419423,-49.78422928172745
704.1923128333306,-50.14770964909646
704.2106913247188,-50.487244310262504
704.2290698161071,-50.8058863273316
704.2474483074953,-51.106083257821865
704.2658267988836,-51.38984684451582
704.2842052902719,-51.65887966107049
704.3025837816601,-51.91464607167722
704.3209622730484,-52.15841143488978
704.3393407644367,-52.39127211262869
704.3577192558249,-52.61418387431593
704.3760977472132,-52.827986279798196
704.4039698697327,-53.13649032603405
704.4318419922522,-53.42796390350618
704.4597141147717,-53.70426565974084
704.4875862372912,-53.96697320200348
704.5154583598107,-54.21743684746654
704.5433304823302,-54.456815320747
704.5712026048498,-54.686106242497395
704.5990747273693,-54.90617333087314
704.6269468498888,-55.11776737885817
704.6548189724083,-55.32154564509843
704.6969408116616,-55.61591024924865
704.739062650915,-55.89543064670713
704.7811844901684,-56.161573340702425
704.8233063294217,-56.4155609199911
704.8654281686751,-56.658421451787085
704.9075500079284,-56.89102908707545
704.9496718471818,-57.114132939533036
704.9917936864351,-57.32837712533759
705.0603369908154,-57.65945285719145
705.1288802951956,-57.97048236498996
705.1974235995758,-58.26303311610489
705.265966903956,-58.53829386202529
705.3345102083363,-58.79719423120109
705.4030535127165,-59.040548421758295
705.4495474734189,-59.19714742434911
705.4960414341213,-59.347173691257424
705.5425353948236,-59.49087560571563
705.589029355526,-59.62850707004109
705.6355233162284,-59.76032997041738
705.6820172769308,-59.88661592606451
705.7285112376331,-60.007642786470264
705.7750051983355,-60.123684514915496
705.8214991590379,-60.23497718674868
705.8679931197403,-60.34176923277654
705.9144870804427,-60.444286613043175
705.960981041145,-60.54272546853089
706.0074750018474,-60.63726761368112
706.0539689625498,-60.728090734502054
706.1004629232522,-60.81537154449378
706.1469568839545,-60.8992875284959
706.1934508446569,-60.980018114110486
706.2399448053593,-61.057743535761425
706.2864387660617,-61.132641507613656
706.332932726764,-61.2048838034926
706.3794266874664,-61.27463427127802
706.4259206481688,-61.342048268790755
706.4724146088712,-61.40727278221521
706.5189085695736,-61.47044659941215
706.565402530276,-61.531700178152306
706.6118964909783,-61.591155052265904
706.6583904516807,-61.6489228554419
706.7048844123831,-61.70510427669559
706.7513783730855,-61.75978832809073
706.7978723337878,-61.8130521668967
706.8443662944902,-61.864961505245276
706.8908602551926,-61.91557149928389
706.937354215895,-61.9649279656098
707.0080650833576,-62.037673120851544
707.0787759508202,-62.107711544738905
707.1494868182828,-62.17512525654045
707.2201976857453,-62.23998386189916
707.2909085532079,-62.30235333910477
707.3616194206705,-62.36230105770206
707.4323302881331,-62.41989837166212
707.5030411555957,-62.47522259685465
707.5737520230583,-62.528358886255454
707.6444628905209,-62.579401240433704
707.7151737579835,-62.62845156021543
707.7858846254461,-62.6756169560342
707.8565954929087,-62.721007107371086
707.9273063603713,-62.76473344674635
707.9980172278339,-62.80690971068469
708.0687280952965,-62.84765170988294
708.1394389627591,-62.887075250421326
708.2101498302217,-62.92529347948994
708.2808606976843,-62.9624152040011
708.3515715651469,-62.99854399810996
708.4593710770495,-63.05192921300167
708.5671705889521,-63.1035408683388
708.6749701008547,-63.15364747728171
708.7827696127573,-63.202477815133925
708.8905691246599,-63.250226958523314
709.0551587076956,-63.32141992082683
709.2197482907312,-63.39097224271764
709.3843378737669,-63.45927333265383
709.5489274568025,-63.52663980358289
709.7135170398382,-63.59333748392879
709.8781066228738,-63.659587413137274
710.13410666933,-63.76215441196955
710.3901067157861,-63.864588638221875
710.6461067622423,-63.96725202280147
710.9021068086985,-64.07039082796017
711.1581068551546,-64.17417775165053
711.4141069016108,-64.27873475899085
711.670106948067,-64.38414034165156
712.0940860948476,-64.56071354664606
712.5180652416283,-64.73981109475213
712.9420443884089,-64.92128933366526
713.3660235351896,-65.10498590245307
713.7900026819702,-65.29086780062354
714.4281111167189,-65.57506221944307
715.0662195514676,-65.86500281617029
715.7043279862163,-66.1610546980778
716.342436420965,-66.46348968272127
716.9805448557137,-66.77251444181077
717.6186532904624,-67.0879721245929
718.256761725211,-67.40923281835752
718.8948701599597,-67.73527846998932
719.5329785947084,-68.06499239241742
720.5033516400762,-68.57078718651348
721.4737246854439,-69.07834828374426
722.4440977308117,-69.58438827063637
723.4144707761794,-70.08621168603334
724.3848438215472,-70.58147464312391
725.3552168669149,-71.06856224335037
726.3255899122827,-71.54591707405314
727.2959629576504,-72.01275543074043
728.2663360030182,-72.46784362324317
729.2367090483859,-72.9110000998549
730.2070820937537,-73.34137511835142
731.1774551391214,-73.7593014867474
732.1478281844892,-74.16399120015336
733.1182012298569,-74.55618596830416
734.0885742752247,-74.93521147659415
735.0589473205924,-75.30200157149463
736.0293203659602,-75.6559285121601
736.9996934113279,-75.99809075855931
737.9700664566957,-76.32792445306816
738.9404395020634,-76.6465177010977
739.9108125474312,-76.95372017973999
740.8811855927989,-77.24996072203577
741.8515586381667,-77.53524635091033
742.8219316835344,-77.81031470008075
743.7923047289022,-78.07528269357256
744.76267777427,-78.33066766082288
746.2647327962773,-78.7074401501679
747.7667878182846,-79.06281758563567
749.2688428402919,-79.39801628288127
751.8747135938298,-79.93458030876411
754.4805843473678,-80.41862032550029
757.0864551009057,-80.8549606857998
761.1054387982138,-81.44432230269972
765.1244224955218,-81.94469861557855
769.1434061928298,-82.36827141205497
775.7193977802932,-82.92204461993697
782.2953893677566,-83.33415549966497
788.8713809552199,-83.63315569398667
795.4473725426833,-83.84204693079911
802.0233641301467,-83.97979262280201
808.59935571761,-84.06201056626166
815.1753473050734,-84.10137486364167
825.8011492809242,-84.10010380060031
836.4269512567749,-84.04654068092891
847.0527532326257,-83.96354775229157
857.6785552084765,-83.86712917239774
868.3043571843273,-83.7680402058877
878.930159160178,-83.6729485055794
889.5559611360288,-83.58551343870671
900.1817631118796,-83.50728294397152
910.8075650877304,-83.43858240658493
921.4333670635812,-83.37903890325362
932.0591690394319,-83.32790000016944
942.6849710152827,-83.28422603301023
953.3107729911335,-83.2470369824042
974.252130720475,-83.18927017395413
995.1934884498164,-83.1466613969647
999.9999999999778,-83.13850994328463
1000.0000000000111,-83.13850994328463
1000.0000000000111,-83.13850994328463
