time,voltage
0.0,-80.0
0.0003984448337938857,-80.00335867065569
0.0019640380018792567,-80.01328853161495
0.005988562823538284,-80.0304339171086
0.013131061746683003,-80.05145255805654
0.024540008019520068,-80.07569891387885
0.03594895429235713,-80.09506209065651
0.05626287782583597,-80.12349553347147
0.089874127923672,-80.16013863735847
0.15288756886729674,-80.21169830295395
0.21590100981092147,-80.25015504173108
0.27891445075454624,-80.28209765618499
0.34192789169817095,-80.31006140824738
0.45473219422972794,-80.3539506164345
0.5675364967612849,-80.39157497294066
0.7395424767892445,-80.44158206942225
0.911548456817204,-80.48527387302663
1.0835544368451635,-80.52491987805305
1.3658015095703475,-80.58448348840388
1.6480485822955315,-80.63960647378559
2.233473466991233,-80.74493719468717
2.818898351686934,-80.8433083005248
3.4043232363826355,-80.93651433249897
3.9897481210783368,-81.02460055103498
4.5751730057740385,-81.10780816747013
5.592261031471724,-81.24230534964732
6.609349057169409,-81.36556319728177
7.626437082867094,-81.47884574353891
9.20006958891895,-81.63636221440667
10.773702094970806,-81.77453318792915
13.21291728183982,-81.95548951774033
15.652132468708833,-82.10214625514601
18.09134765557785,-82.22049674703176
20.530562842446862,-82.3157269974504
22.969778029315876,-82.3921790126002
26.86995909384107,-82.48424502149086
30.770140158366267,-82.54905717861635
34.67032122289146,-82.59515644494033
38.57050228741665,-82.62879665936822
42.470683351941844,-82.6544518025941
46.370864416467036,-82.6752413886031
50.27104548099223,-82.69327615778812
54.17122654551742,-82.71001938322226
58.07140761004261,-82.72632534846453
61.971588674567805,-82.74274177455885
65.871769739093,-82.75942122090427
69.7719508036182,-82.77641194052491
73.6721318681434,-82.79357280701194
77.5723129326686,-82.81102018806287
81.4724939971938,-82.82875444805794
85.372675061719,-82.84668777113
89.27285612624419,-82.86425212425935
93.17303719076939,-82.88106052379867
97.07321825529459,-82.89690648404998
100.97339931981979,-82.91209999575896
104.87358038434499,-82.92677544951881
108.77376144887019,-82.94070088834218
112.67394251339539,-82.95346145451228
116.57412357792059,-82.96493579865627
120.47430464244579,-82.97541030034107
124.37448570697099,-82.9850589456435
128.2746667714962,-82.99375409743216
132.17484783602137,-83.00136629781147
136.07502890054656,-83.00805909629901
139.97520996507174,-83.0139567728058
143.87539102959693,-83.01900150629218
147.7755720941221,-83.02323335798766
151.6757531586473,-83.02673607704106
155.57593422317248,-83.02960258212629
159.47611528769767,-83.03174931113635
163.37629635222285,-83.03337077944842
167.27647741674804,-83.03447001611738
171.17665848127322,-83.03510342461726
175.0768395457984,-83.0354306805199
178.9770206103236,-83.0357129790013
182.87720167484878,-83.03582098285108
186.77738273937396,-83.0355154088388
190.67756380389915,-83.03483566036766
194.57774486842433,-83.03396337046827
198.47792593294952,-83.03300750054034
202.3781069974747,-83.03191237026317
206.2782880619999,-83.03078114654981
210.17846912652507,-83.02962631176446
214.07865019105026,-83.02850204833513
217.97883125557544,-83.02722769432549
221.87901232010063,-83.02586263092871
225.7791933846258,-83.02460745947668
229.679374449151,-83.02358529864601
233.57955551367618,-83.02267826471791
237.47973657820137,-83.02167239149196
241.37991764272655,-83.02057687030634
245.28009870725174,-83.01955120882545
249.18027977177692,-83.01864608896587
253.0804608363021,-83.01775306991169
256.9806419008273,-83.01686352719724
260.88082296535254,-83.01605423481965
264.78100402987775,-83.01530369663827
268.68118509440296,-83.01461186324846
272.5813661589282,-83.0139467283521
276.4815472234534,-83.01339285692286
280.3817282879786,-83.01294352296131
284.2819093525038,-83.01259687294453
288.18209041702903,-83.0121929932287
292.08227148155424,-83.01169010066218
295.98245254607946,-83.01109399570174
299.88263361060467,-83.01063543438795
303.7828146751299,-83.01026536702135
307.6829957396551,-83.00990250376488
311.5831768041803,-83.00937862424475
315.4833578687055,-83.00883329487185
319.38353893323074,-83.0084992659176
323.28371999775595,-83.00843579288856
327.18390106228117,-83.00847983905432
331.0840821268064,-83.00844495858355
334.9842631913316,-83.00832953842801
338.8844442558568,-83.0082093011171
342.784625320382,-83.00809386668124
346.68480638490723,-83.00799480350297
350.58498744943245,-83.00790391668546
354.48516851395766,-83.00781420027482
358.3853495784829,-83.00767242864974
362.2855306430081,-83.00755106920109
366.1857117075333,-83.00750168253532
370.0858927720585,-83.00754607769188
373.9860738365837,-83.00756617673537
377.88625490110894,-83.00757331790602
381.78643596563415,-83.0076014024512
385.68661703015937,-83.00773918637266
389.5867980946846,-83.00793414958899
393.4869791592098,-83.0080718864172
397.387160223735,-83.00810089638247
401.2873412882602,-83.00805384134918
405.18752235278544,-83.00800760263046
409.08770341731065,-83.00796586026127
412.98788448183586,-83.00792910952316
416.8880655463611,-83.00790566793819
420.7882466108863,-83.00794761156233
424.6884276754115,-83.00805032035004
428.5886087399367,-83.00815409689423
432.48878980446193,-83.00820813612006
436.38897086898714,-83.00818311675508
440.28915193351236,-83.00812207556312
444.18933299803757,-83.00804612778943
448.0895140625628,-83.00800162594459
451.989695127088,-83.00793050347448
455.8898761916132,-83.00789220820641
459.7900572561384,-83.00791467344415
463.69023832066364,-83.0079540610584
467.59041938518885,-83.00790638773861
471.49060044971407,-83.00777683566629
475.3907815142393,-83.00767235790795
479.2909625787645,-83.00763847793512
483.1911436432897,-83.00758740887309
487.0913247078149,-83.0075366407499
490.99150577234013,-83.00750862754916
494.89168683686535,-83.0074972622968
498.79186790139056,-83.00738829972201
502.6920489659158,-83.0072131499193
506.592230030441,-83.00708997138601
510.4924110949662,-83.00705682494649
514.3925921594914,-83.00709947257987
518.2927732240166,-83.00713651392556
522.1929542885418,-83.0071905627248
526.093135353067,-83.00720357897544
529.9933164175923,-83.00725846224965
532.6985128184273,-83.0073519732426
535.4037092192623,-83.00744337930082
538.1089056200973,-83.00744307344308
540.8141020209323,-83.00737304624724
543.5192984217673,-83.00732567945401
546.2244948226023,-83.00734118867295
548.9296912234373,-83.00736250374464
551.6348876242723,-83.00737592130885
554.3400840251073,-83.00738760939839
557.0452804259423,-83.00742341836569
559.7504768267773,-83.00743089530695
562.4556732276124,-83.00744767564105
564.32951130061,-83.00749073825594
566.2033493736076,-83.00753985024902
568.0771874466052,-83.00755285851176
571.171854467973,-83.00752508433146
574.2665214893409,-83.0075705556655
577.3611885107088,-83.00770600286832
580.4558555320766,-83.00783590226116
583.5505225534445,-83.00789474244294
586.6451895748123,-83.00794004326288
589.7398565961802,-83.00797412867928
592.834523617548,-83.00799531010836
595.9291906389159,-83.00796923237264
598.0710226437451,-83.00792018329139
600.2128546485743,-83.00786824886804
602.3546866534035,-83.00784804502575
604.4965186582327,-83.00786464638763
606.6383506630619,-83.0078905806983
608.7801826678912,-83.00789792251882
610.9220146727204,-83.00789830084311
613.0638466775496,-83.00790693421048
615.2056786823788,-83.00792356838323
617.347510687208,-83.00794084735868
619.4893426920372,-83.00795630028337
622.7517286262121,-83.0079735231349
626.0141145603869,-83.00797524771133
629.2765004945618,-83.00796945801848
632.5388864287366,-83.00795803601252
635.8012723629115,-83.0079523289478
639.0636582970864,-83.00794726512764
642.3260442312612,-83.00794893147327
645.5884301654361,-83.00794818705388
648.8508160996109,-83.00795331138625
652.1132020337858,-83.00795434736096
655.3755879679607,-83.00796167169894
658.6379739021355,-83.0079630555016
661.9003598363104,-83.00797148632257
665.1627457704852,-83.0079724310748
668.4251317046601,-83.00796547426268
671.687517638835,-83.00794433026995
674.9499035730098,-83.00792315144602
678.2122895071847,-83.00790508422432
681.4746754413595,-83.00790064469798
684.7370613755344,-83.00789914176406
687.9994473097092,-83.00789780980847
691.2618332438841,-83.00789220446315
697.6035415465554,-83.00788893497038
700.0,-83.00789238795123
700.0,-83.00789238795123
700.0000867787699,-82.99103057925167
700.0002576988857,-82.95958270777012
700.0007342459613,-82.88150161628977
700.001210793037,-82.8110593575467
700.0021206640569,-82.69093892138298
700.0030305350767,-82.58592449998953
700.0053752214562,-82.36053766162956
700.0077199078357,-82.18034709461915
700.0100645942152,-82.02608535453638
700.0124092805947,-81.88796314142176
700.0163656404977,-81.67797610120154
700.0203220004007,-81.4916501261768
700.0242783603037,-81.32323920589471
700.0310764351926,-81.06498749208612
700.0378745100816,-80.83667884706782
700.0508755834613,-80.45826744350127
700.0638766568411,-80.12935522003585
700.0768777302209,-79.83313870816473
700.0898788036006,-79.56199312774473
700.1028798769804,-79.31117574875445
700.124871845325,-78.92377903145814
700.1468638136695,-78.57132891776257
700.168855782014,-78.2452464280308
700.2034383825595,-77.77447641860526
700.238020983105,-77.34402150955567
700.2918156301102,-76.73546844865201
700.375855918212,-75.89108510774534
700.4598962063137,-75.14342166516191
700.5439364944154,-74.47005845412949
700.6279767825172,-73.8495938564464
700.7120170706189,-73.26618133561723
700.7960573587206,-72.7116735270889
700.8800976468224,-72.1815528161037
701.0111727260596,-71.39298867862672
701.1422478052968,-70.6408812125567
701.2733228845341,-69.91707397648537
701.4043979637713,-69.21538981701559
701.6072078181282,-68.16302489487354
701.8100176724852,-67.142203032081
702.0128275268421,-66.14644078008277
702.215637381199,-65.17083783897075
702.418447235556,-64.21104239965378
702.7803821436003,-62.525633768698604
703.3354520236056,-59.956511212918535
703.4742194936069,-59.307006954677924
703.6129869636083,-58.644697145027074
703.7517544336096,-57.961357719428776
703.9606451806286,-56.854452035821836
704.0,-56.62896874417904
704.0,-56.62896874417904
704.0000867787567,-56.64532452109516
704.0002577000852,-56.67577494125485
704.0007342638596,-56.75107024912046
704.001210827634,-56.81872056302191
704.0021206657856,-56.93349015347185
704.0030305039371,-57.033140536194246
704.0053749693774,-57.24464017211121
704.0077194348177,-57.410883091050486
704.0100639002579,-57.55114959441253
704.0124083656982,-57.6752394854596
704.0163645460776,-57.861501304609895
704.020320726457,-58.02404896931707
704.0242769068365,-58.16865119346394
704.0310775832014,-58.38606286626292
704.0378782595664,-58.573531550122425
704.050916619482,-58.874670630134815
704.0639549793976,-59.126521852719634
704.0769933393133,-59.34607076171678
704.0900316992289,-59.5410342960401
704.1030700591446,-59.71617712552518
704.1250308962557,-59.97565601761202
704.1469917333668,-60.201818672898256
704.1689525704779,-60.40309540681622
704.2036171669453,-60.68116666175044
704.2382817634126,-60.92137823709067
704.2926691906267,-61.24022740950426
704.3761014055609,-61.63002931773953
704.4595336204951,-61.92683455389768
704.5429658354293,-62.14721533221461
704.6263980503635,-62.298214081135725
704.7098302652977,-62.377482694662554
704.7589703073927,-62.37383467767861
704.8081103494877,-62.285629191398996
704.8203953600115,-62.241909367075166
704.8326803705353,-62.184760128867815
704.8449653810591,-62.109908501087034
704.8572503915829,-62.011062315538936
704.8695354021066,-61.878637760240096
704.8818204126304,-61.69775177546905
704.8941054231542,-61.44599239070837
704.901979358693,-61.23364480527429
704.9098532942318,-60.97135842907494
704.9177272297705,-60.65308531443662
704.9256011653093,-60.27804888256511
704.9334751008481,-59.852163294335455
704.9413490363869,-59.38671823780091
704.9492229719257,-58.89446961380896
704.9570969074645,-58.38568226280919
704.9649708430032,-57.86716747059415
704.972844778542,-57.34439451202099
704.9807187140808,-56.82346088179951
704.9885926496196,-56.310431009745905
704.9964665851584,-55.80930317709532
705.0043405206972,-55.321361298957015
705.0122144562359,-54.846302945792466
705.0200883917747,-54.38330278619619
705.0279623273135,-53.93102504270028
705.0358362628523,-53.487438435927274
705.0437101983911,-53.05024605512737
705.0515841339299,-52.617479935722365
705.0594580694686,-52.18754805764817
705.0673320050074,-51.758980846508805
705.0752059405462,-51.330453905049716
705.083079876085,-50.90096471061678
705.0909538116238,-50.469940105152446
705.0988277471625,-50.037138231018375
705.1067016827013,-49.60258846648256
705.1145756182401,-49.16657747547838
705.1224495537789,-48.729723069206024
705.1275789193434,-48.445106715372035
705.1327082849078,-48.16079818839902
705.1378376504723,-47.87711548056835
705.1429670160368,-47.594418226977545
705.1480963816012,-47.31309123567066
705.1532257471657,-47.03352822066761
705.1583551127302,-46.756125456150386
705.1634844782947,-46.48128398998337
705.1686138438591,-46.20940343383641
705.1737432094236,-45.94087285928679
705.1788725749881,-45.676063747284424
705.1840019405525,-45.4153277335522
705.189131306117,-45.15899329530452
705.1942606716815,-44.90736158222586
705.199390037246,-44.66070303678285
705.2045194028104,-44.419256405204806
705.2096487683749,-44.1832285096361
705.2147781339394,-43.95279325825646
705.2199074995038,-43.728091711290006
705.2250368650683,-43.509233230065135
705.2301662306328,-43.2962970964921
705.2352955961973,-43.08933336209514
705.2404249617617,-42.88836463682414
705.2455543273262,-42.69338852674268
705.2506836928907,-42.50437991752236
705.2558130584551,-42.321292837172216
705.2609424240196,-42.1440626193052
705.2660717895841,-41.97260797408886
705.2712011551486,-41.806833286740655
705.276330520713,-41.64663080131534
705.2814598862775,-41.49188245977549
705.286589251842,-41.34246152177897
705.2917186174064,-41.19823422638702
705.2968479829709,-41.059061411870935
705.3019773485354,-40.92479993573901
705.3071067140999,-40.79530388939064
705.3122360796643,-40.67042570275886
705.3173654452288,-40.550017162628045
705.3224948107933,-40.43393031089308
705.3276241763577,-40.32201821314981
705.3327535419222,-40.2141356057534
705.3378829074867,-40.11013950552071
705.3430122730512,-40.00988973374047
705.3481416386156,-39.91324927014188
705.3532710041801,-39.82008456608528
705.3584003697446,-39.73026585210835
705.363529735309,-39.64366738986329
705.3686591008735,-39.56016762902557
705.373788466438,-39.47964930713546
705.3789178320025,-39.40199952965957
705.3840471975669,-39.32710982639051
705.3891765631314,-39.25487616998587
705.3943059286959,-39.185198961715166
705.3994352942603,-39.11798299707215
705.4045646598248,-39.05313741557382
705.4096940253893,-38.99057563361327
705.4148233909538,-38.930215262148735
705.4199527565182,-38.87197801359528
705.4250821220827,-38.81578960079469
705.4302114876472,-38.761579629076294
705.4353408532116,-38.70928147666334
705.4404702187761,-38.65883218484844
705.4455995843406,-38.610172353308464
705.450728949905,-38.56324600214662
705.4558583154695,-38.51800043034318
705.460987681034,-38.47438610906786
705.4661170465985,-38.43235657886727
705.4712464121629,-38.39186832665839
705.4763757777274,-38.35288065905109
705.4815051432919,-38.31535558871905
705.4866345088564,-38.27925772930597
705.4917638744208,-38.24455418951175
705.4968932399853,-38.211214467374425
705.5020226055498,-38.17921034968589
705.5071519711142,-38.148515817042934
705.5122813366787,-38.11910695229384
705.5174107022432,-38.090961851924824
705.5225400678077,-38.064060541487336
705.5276694333721,-38.03838489546668
705.5327987989366,-38.013918561062034
705.5379281645011,-37.99064688599297
705.5430575300655,-37.9685568472639
705.54818689563,-37.94763698909594
705.5533162611945,-37.92787736307906
705.558445626759,-37.909269464356996
705.5635749923234,-37.8918061785502
705.5687043578879,-37.87548173343619
705.5738337234524,-37.86029165024034
705.5789630890168,-37.84623269671981
705.5840924545813,-37.83330284494646
705.5892218201458,-37.82150123289271
705.5943511857103,-37.81082812792027
705.5994805512747,-37.80128489220011
705.6046099168392,-37.79287395087549
705.6097392824037,-37.78559876293599
705.6148686479681,-37.779463794213704
705.6199980135326,-37.77447449226412
705.6251273790971,-37.770637263230064
705.6302567446616,-37.76795945066614
705.635386110226,-37.76644931610796
705.6405154757905,-37.76611602197498
705.645644841355,-37.76696961369459
705.6507742069194,-37.76902100418851
705.6559035724839,-37.772281961993876
705.6610329380484,-37.7767650985457
705.6661623036129,-37.782483856356656
705.6712916691773,-37.78945249762112
705.6764210347418,-37.7976860937667
705.6815504003063,-37.807200515967615
705.6866797658707,-37.81801242613927
705.6918091314352,-37.83013926786678
705.6969384969997,-37.84359925712796
705.7020678625641,-37.85841137281196
705.7071972281286,-37.87459534686232
705.7123265936931,-37.89217165370248
705.7174559592576,-37.911161498615456
705.722585324822,-37.93158680480393
705.7277146903865,-37.95347019883454
705.732844055951,-37.97683499410591
705.7379734215154,-38.00170517194212
705.7431027870799,-38.02810535999774
705.7482321526444,-38.05606080749519
705.7533615182089,-38.085597355413356
705.7584908837733,-38.11674140393946
705.7636202493378,-38.14951987697303
705.7687496149023,-38.18396017920629
705.7738789804667,-38.22009014560814
705.7790083460312,-38.25793798588129
705.7841377115957,-38.297532223384486
705.7892670771602,-38.338901626385166
705.7943964427246,-38.382075130484566
705.7995258082891,-38.427081752453745
705.8046551738536,-38.47395049562032
705.809784539418,-38.52271024641271
705.8149139049825,-38.57338966164502
705.820043270547,-38.62601704653026
705.8251726361115,-38.68062022368015
705.8303020016759,-38.73722639343617
705.8354313672404,-38.79586198597528
705.8405607328049,-38.85655250582163
705.8456900983693,-38.919322363512585
705.8508194639338,-38.98419471757075
705.8559488294983,-39.05119130818735
705.8610781950628,-39.12033226675654
705.8662075606272,-39.191635932604086
705.8713369261917,-39.26511867487274
705.8764662917562,-39.340794714333235
705.8815956573206,-39.41867594197635
705.8867250228851,-39.498771735486955
705.8918543884496,-39.581088776863666
705.8969837540141,-39.66563087386819
705.9021131195785,-39.752398785654634
705.907242485143,-39.84139005257431
705.9123718507075,-39.932598831550095
705.917501216272,-40.02601573962454
705.9226305818364,-40.12162770831131
705.9277599474009,-40.21941785111195
705.9328893129654,-40.31936534651134
705.9380186785298,-40.42144533857155
705.9431480440943,-40.525628857055246
705.9482774096588,-40.631882752844355
705.9534067752232,-40.740169681831254
705.9585361407877,-40.85044811321984
705.9636655063522,-40.9626723417338
705.9687948719167,-41.07679254334713
705.9739242374811,-41.1927548700473
705.9790536030456,-41.31050157607975
705.9841829686101,-41.42997117223616
705.9893123341745,-41.5510986114528
705.994441699739,-41.673815500582464
705.9995710653035,-41.79805032888246
706.004700430868,-41.92372870640596
706.0098297964324,-42.05077361506297
706.0149591619969,-42.17910568435838
706.0200885275614,-42.308643498400286
706.0252178931258,-42.43930392014327
706.0303472586903,-42.571002410096106
706.0354766242548,-42.70365333407248
706.0406059898193,-42.837170272436595
706.0457353553837,-42.97146633605062
706.0508647209482,-43.106454484816844
706.0559940865127,-43.24204780392975
706.0611234520771,-43.378159771233555
706.0662528176416,-43.51470454752082
706.0713821832061,-43.6515972413818
706.0765115487706,-43.78875413436902
706.081640914335,-43.926092867768624
706.0867702798995,-44.06353263113242
706.091899645464,-44.200994383400186
706.0970290110284,-44.33840107550699
706.1021583765929,-44.47567782275358
706.1072877421574,-44.61275202953469
706.1124171077219,-44.74955350888346
706.1175464732863,-44.88601460941635
706.1226758388508,-45.02207032209605
706.1278052044153,-45.15765834965975
