time,voltage
0.0,6.5e-05
0.0002989975869093987,6.500000002462212e-05
0.0012925203502985587,6.500000010643752e-05
0.003739567736800839,6.500000030795095e-05
0.007828007369448147,6.500000064464559e-05
0.014054817189508347,6.500000115746611e-05
0.020281627009568547,6.500000167030068e-05
0.03142589369846535,6.500000258815705e-05
0.049177464812045914,6.50000040502104e-05
0.08259600687046753,6.500000680254932e-05
0.11601454892888916,6.50000095545525e-05
0.14943309098731078,6.500001230614222e-05
0.1828516330457324,6.50000150571816e-05
0.23935883084848247,6.500001970721091e-05
0.2958660286512325,6.500002435494079e-05
0.35237322645398256,6.500002900005955e-05
0.45046472738883697,6.500003705628699e-05
0.5485562283236913,6.500004510272381e-05
0.7064046592979748,6.500005802808368e-05
0.8642530902722583,6.500007092327456e-05
1.1479777129412598,6.500009401795505e-05
1.4317023356102614,6.500011699447755e-05
1.715426958279263,6.500013984618945e-05
1.9991515809482645,6.500016256413444e-05
2.282876203617266,6.50001851431545e-05
2.783090147448483,6.500022460043762e-05
3.5419715506172067,6.50002835671156e-05
4.300852953785931,6.50003414138031e-05
5.059734356954655,6.500039810111045e-05
5.818615760123379,6.500045361201684e-05
6.577497163292103,6.500050794484757e-05
7.814869873225697,6.500059404518268e-05
9.052242583159291,6.500067712289109e-05
10.289615293092886,6.500075728625456e-05
12.22788292448321,6.500087735826005e-05
14.166150555873532,6.5000991245757e-05
16.104418187263853,6.500109957538911e-05
19.34182230796085,6.500126979325651e-05
22.579226428657847,6.5001429048349e-05
25.816630549354844,6.50015796006236e-05
29.05403467005184,6.500172342819587e-05
32.29143879074884,6.500186212406736e-05
35.528842911445835,6.500199686794176e-05
40.506315360914535,6.500219825116685e-05
45.483787810383234,6.500239444605137e-05
50.46126025985193,6.500258673276909e-05
55.43873270932063,6.500277582963374e-05
63.82519384551253,6.500308773296425e-05
72.21165498170443,6.500339095976887e-05
80.59811611789632,6.500368515315108e-05
88.98457725408822,6.500396896434741e-05
97.37103839028012,6.500424292492549e-05
105.75749952647202,6.500450798657067e-05
114.14396066266391,6.500476314950412e-05
122.53042179885581,6.500500808231687e-05
130.9168829350477,6.500524435432576e-05
139.30334407123962,6.500547299548052e-05
147.6898052074315,6.50056940633737e-05
156.0762663436234,6.500590740808983e-05
164.46272747981527,6.500611373197698e-05
172.84918861600715,6.500631421185924e-05
181.23564975219904,6.50065093010175e-05
189.62211088839092,6.500669856102419e-05
198.0085720245828,6.500688218488713e-05
206.3950331607747,6.500706075254099e-05
214.78149429696657,6.500723468057594e-05
223.16795543315845,6.500740390417344e-05
231.55441656935034,6.500756838275504e-05
239.94087770554222,6.500772822028711e-05
248.3273388417341,6.500788375512443e-05
256.713799977926,6.500803505867985e-05
265.10026111411787,6.5008182194291e-05
273.48672225030975,6.500832515456141e-05
281.87318338650164,6.500846409766022e-05
290.2596445226935,6.500859909485573e-05
298.6461056588854,6.500873037257786e-05
307.0325667950773,6.500885790951436e-05
315.41902793126917,6.500898182732421e-05
323.80548906746105,6.500910213888712e-05
332.19195020365294,6.500921906257082e-05
340.5784113398448,6.50093326080377e-05
348.9648724760367,6.500944296234298e-05
357.3513336122286,6.500955006105787e-05
365.73779474842047,6.500965411911022e-05
374.12425588461235,6.500975512547708e-05
382.51071702080424,6.50098533022524e-05
390.8971781569961,6.500994856550025e-05
399.283639293188,6.501004114798404e-05
407.6701004293799,6.50101309625744e-05
416.05656156557177,6.501021827746932e-05
424.44302270176365,6.501030297987693e-05
432.82948383795554,6.501038533031696e-05
441.2159449741474,6.501046518065161e-05
449.6024061103393,6.501054283962177e-05
457.9888672465312,6.501061812970175e-05
466.37532838272307,6.501069137406157e-05
474.76178951891495,6.50107623569127e-05
483.14825065510684,6.501083143194199e-05
491.5347117912987,6.501089834693162e-05
499.9211729274906,6.50109634989161e-05
508.3076340636825,6.50110265832666e-05
516.6940951998744,6.501108803217029e-05
525.0805563360663,6.501114749704038e-05
533.4670174722581,6.501120506230827e-05
541.85347860845,6.501126087212743e-05
550.2399397446419,6.501131539434079e-05
558.6264008808338,6.501136830357354e-05
567.0128620170257,6.501141997795183e-05
575.3993231532176,6.501146992454962e-05
583.7857842894094,6.501151847927906e-05
592.1722454256013,6.501156535224423e-05
600.5587065617932,6.50116111986437e-05
608.9451676979851,6.50116555882113e-05
617.331628834177,6.501169892024982e-05
625.7180899703689,6.501174060746329e-05
634.1045511065607,6.501178137963244e-05
642.4910122427526,6.501182072732529e-05
650.8774733789445,6.501185929857605e-05
659.2639345151364,6.501189636352003e-05
667.6503956513283,6.50119327069225e-05
676.0368567875202,6.501196759815773e-05
684.423317923712,6.501200194008845e-05
692.8097790599039,6.501203482912138e-05
700.0,6.501206248165287e-05
700.0,6.501206248165287e-05
700.0000521228095,6.501206248185084e-05
700.0001355764348,6.501206248216779e-05
700.0003155794074,6.501206248285142e-05
700.0004955823799,6.501206248353498e-05
700.0008613518955,6.501206248492374e-05
700.0012271214111,6.501206248631161e-05
700.002131991608,6.501206248973838e-05
700.003036861805,6.501206249315268e-05
700.0039417320019,6.501206249655319e-05
700.0048466021988,6.501206249993942e-05
700.0062638655456,6.501206250521322e-05
700.0076811288925,6.501206251045237e-05
700.0090983922394,6.501206251565824e-05
700.0114612752036,6.501206252426805e-05
700.0138241581678,6.5012062532796e-05
700.0175321321605,6.501206254602841e-05
700.0212401061531,6.501206255909307e-05
700.027637654671,6.50120625812929e-05
700.034035203189,6.501206260313606e-05
700.0404327517069,6.5012062624691e-05
700.0468303002249,6.501206264602695e-05
700.0532278487428,6.501206266720554e-05
700.0636216560459,6.501206270141687e-05
700.074015463349,6.501206273558317e-05
700.0844092706521,6.501206276991885e-05
700.1003581767756,6.501206282339039e-05
700.116307082899,6.501206287842749e-05
700.1322559890224,6.501206293569174e-05
700.1615814867364,6.501206304891102e-05
700.1909069844504,6.501206317558913e-05
700.2202324821644,6.501206331957218e-05
700.2495579798784,6.501206348454761e-05
700.2788834775924,6.501206367442854e-05
700.3082089753065,6.501206389329898e-05
700.3553433549005,6.50120643165099e-05
700.4024777344945,6.501206484408387e-05
700.4496121140885,6.501206549617235e-05
700.4967464936825,6.501206629505318e-05
700.5438808732765,6.501206726542436e-05
700.6222503069565,6.501206933423483e-05
700.7420026655367,6.501207390549074e-05
700.8617550241169,6.501208079215562e-05
700.981507382697,6.501209089393499e-05
701.1012597412772,6.501210547236198e-05
701.2210120998574,6.501212629753792e-05
701.3407644584375,6.501215585550718e-05
701.4605168170177,6.501219763973769e-05
701.6580359606731,6.50123085318686e-05
701.7915347571596,6.50124301220325e-05
701.8249094562813,6.50124690041855e-05
701.8582841554029,6.50125122845121e-05
701.8916588545245,6.50125606090044e-05
701.9250335536461,6.50126147201625e-05
701.9584082527678,6.501267562033583e-05
701.9917829518894,6.501274462914242e-05
702.025157651011,6.501282361620331e-05
702.0585323501326,6.501291533357625e-05
702.0790908056359,6.501298018125179e-05
702.0996492611392,6.501305371178735e-05
702.1202077166425,6.501313995234735e-05
702.1407661721458,6.50132468284952e-05
702.1513070297267,6.501331698904575e-05
702.1584228316639,6.501337593747358e-05
702.165538633601,6.501345029020135e-05
702.1726544355382,6.501355033853238e-05
702.1797702374754,6.501369193724106e-05
702.1868860394126,6.501389992583651e-05
702.1940018413497,6.501420721982826e-05
702.2011176432869,6.50146580283627e-05
702.2082334452241,6.501530866832126e-05
702.2153492471613,6.501622897013566e-05
702.2224650490984,6.501749800066636e-05
702.2295808510356,6.501920356358132e-05
702.2366966529728,6.50214392664377e-05
702.2476860711007,6.502617340122954e-05
702.2586754892286,6.503280683348098e-05
702.2696649073565,6.504174584976933e-05
702.2806543254844,6.505337554168725e-05
702.2916437436123,6.506811762256514e-05
702.3026331617402,6.50863256854406e-05
702.3136225798681,6.510837643426398e-05
702.324611997996,6.513459293913039e-05
702.335601416124,6.516529959279349e-05
702.3465908342519,6.520076043782638e-05
702.3575802523798,6.524124436967847e-05
702.3685696705077,6.528696724837804e-05
702.3795590886356,6.533814387755117e-05
702.3905485067635,6.539494047635035e-05
702.4015379248914,6.54575223721591e-05
702.4125273430193,6.55260121722378e-05
702.4235167611472,6.560053387237626e-05
702.4345061792751,6.56811723804012e-05
702.445495597403,6.576801513138539e-05
702.4564850155309,6.58611160795077e-05
702.4674744336588,6.596053177886832e-05
702.4784638517867,6.606628886765227e-05
702.4894532699146,6.61784162546105e-05
702.5004426880425,6.629691518520714e-05
702.5114321061704,6.642178670819881e-05
702.5224215242984,6.655300564610416e-05
702.5334109424263,6.669054014977307e-05
702.5444003605542,6.68343302550866e-05
702.5553897786821,6.698430018079843e-05
702.56637919681,6.714034021428063e-05
702.5773686149379,6.730231501943201e-05
702.5954552275549,6.758138349667802e-05
702.607983610946,6.778344831023583e-05
702.6205119943371,6.799244959437018e-05
702.6330403777282,6.820845014124383e-05
702.6455687611193,6.843182073446064e-05
702.6580971445104,6.866330891482168e-05
702.6706255279015,6.890380603469098e-05
702.6831539112926,6.915426801723474e-05
702.6956822946837,6.941555256935578e-05
702.7082106780748,6.968844791144738e-05
702.7207390614659,6.997352110814785e-05
702.733267444857,7.027107736676912e-05
702.7457958282481,7.058128549193317e-05
702.7583242116392,7.090419592307922e-05
702.7708525950303,7.123976732649123e-05
702.7833809784214,7.158791847988003e-05
702.7959093618125,7.194851728066979e-05
702.8084377452036,7.232138586855075e-05
702.8209661285947,7.270632613828393e-05
702.8334945119858,7.310311821335174e-05
702.8460228953769,7.351152317487432e-05
702.858551278768,7.393129363669973e-05
702.8710796621591,7.436217383873855e-05
702.8836080455502,7.480390257087818e-05
702.8961364289413,7.52562184885293e-05
702.9086648123324,7.571885998161796e-05
702.9211931957235,7.619156589633503e-05
702.9337215791146,7.667407714489833e-05
702.9525639601583,7.741766119638477e-05
702.9714063412019,7.818198258877884e-05
702.9902487222456,7.896619737297493e-05
703.0090911032893,7.976948028891509e-05
703.027933484333,8.059102732900808e-05
703.0467758653766,8.143005593046647e-05
703.0656182464203,8.228580416081657e-05
703.084460627464,8.31575311584107e-05
703.1033030085076,8.404451460565243e-05
703.1221453895513,8.4946049979515e-05
703.140987770595,8.586144919166245e-05
703.1598301516386,8.67900363370516e-05
703.1786725326823,8.773114595713844e-05
703.197514913726,8.868412138197234e-05
703.2163572947696,8.96483132066014e-05
703.2351996758133,9.062307837628393e-05
703.254042056857,9.160777995017268e-05
703.2728844379006,9.26017873229667e-05
703.2917268189443,9.360447806650085e-05
703.310569199988,9.461524000708556e-05
703.3294115810316,9.563347470391078e-05
703.3482539620753,9.665859946124315e-05
703.367096343119,9.769005106585519e-05
703.3859387241627,9.872728740996656e-05
703.4047811052063,9.976979190533628e-05
703.42362348625,0.00010081707251609062
703.4424658672937,0.00010186866436625897
703.4613082483373,0.00010292412573456869
703.480150629381,0.00010398304132853857
703.4989930104247,0.00010504501449690691
703.5178353914683,0.00010610966874142336
703.536677772512,0.00010717663590440187
703.5555201535557,0.00010824555995419357
703.5743625345993,0.00010931608205949662
703.593204915643,0.00011038784422097066
703.6120472966867,0.00011146047136429726
703.6308896777304,0.00011253357981231856
703.6632240457463,0.00011437500792594537
703.6955584137623,0.00011621441798829068
703.7278927817783,0.00011804936312256443
703.7602271497943,0.00011987735378163207
703.7925615178103,0.00012169578562720535
703.8248958858263,0.00012350219924531613
703.8572302538423,0.00012529404435431755
703.8895646218583,0.00012706918030250895
703.9218989898743,0.0001288255456650721
703.9542333578903,0.00013056170682784068
703.9865677259063,0.0001322760852770238
704.0,0.00013298160244146909
704.0,0.00013298160244146909
704.0000521218896,0.00013298433245766025
704.0001356163577,0.00013298870553647024
704.0003162004328,0.00013299816303040922
704.000496784508,0.00013300761988582676
704.000862697807,0.00013302678046955136
704.001228611106,0.00013304593956590664
704.0021317424876,0.000133093223179181
704.0030348738692,0.0001331405049969557
704.0039380052508,0.00013318778614187867
704.0048411366324,0.00013323506677125535
704.0062581373006,0.0001333092489232027
704.0076751379688,0.00013338342728697516
704.009092138637,0.00013345759925682577
704.0114574059969,0.00013358138505352625
704.0138226733568,0.00013370513513753243
704.0175389790834,0.000133899475990004
704.02125528481,0.00013409367885671442
704.0277077014302,0.00013443046322112644
704.0341601180505,0.00013476664083330182
704.0406125346708,0.00013510213485640627
704.0470649512911,0.0001354368722934187
704.0535173679114,0.00013577079688905952
704.0640651311179,0.00013631481020783088
704.0746128943244,0.00013685638277384618
704.085160657531,0.00013739537979268402
704.1012335502477,0.0001382115320459251
704.1173064429644,0.00013902114143441536
704.1333793356811,0.00013982394968614395
704.1494522283978,0.0001406197542773119
704.1655251211145,0.00014140839449156413
704.1815980138311,0.00014218973183538743
704.1976709065478,0.00014296364383588236
704.2230574016985,0.0001441706282314984
704.2484438968492,0.0001453584940361624
704.2738303919998,0.000146527001674142
704.2992168871505,0.00014767599108680995
704.3246033823011,0.00014880536106899792
704.3499898774518,0.00014991505847871504
704.3753763726024,0.00015100507923865024
704.4007628677531,0.00015207546297690616
704.4261493629037,0.00015312628722002032
704.4515358580544,0.00015415765975024303
704.476922353205,0.00015516971566220108
704.5023088483557,0.00015616261348364686
704.5276953435064,0.0001571365327843214
704.553081838657,0.00015809167202613338
704.5784683338077,0.00015902824624524001
704.6038548289583,0.00015994648383389992
704.629241324109,0.0001608466242888184
704.6546278192596,0.00016172891765856113
704.6984871809834,0.0001632119301617987
704.7423465427072,0.0001646438226538714
704.786205904431,0.00016602602419806334
704.8300652661547,0.00016735999215554962
704.8739246278785,0.00016864719729203697
704.9177839896023,0.00016988911524342605
704.9894813566242,0.00017182559861248992
705.0611787236461,0.0001736513584664637
705.132876090668,0.00017537263411611568
705.2045734576899,0.0001769954925744134
705.2762708247118,0.00017852577693871328
705.3479681917337,0.00017996908926960428
705.3968223348197,0.0001809054840650793
705.4456764779057,0.00018180561629555132
705.4945306209918,0.00018267105751368986
705.5433847640778,0.00018350332378483383
705.5922389071638,0.00018430387549364313
705.6410930502499,0.00018507411767907032
705.6899471933359,0.00018581540051437528
705.738801336422,0.00018652902011710116
705.787655479508,0.00018721621944388755
705.836509622594,0.00018787818917277848
705.88536376568,0.00018851606925912988
705.9342179087661,0.00018913094984077485
705.9830720518521,0.0001897238727145308
706.0319261949381,0.00019029583291687788
706.0807803380242,0.0001908477802342722
706.1296344811102,0.00019138062070251483
706.1784886241962,0.0001918952182062447
706.2273427672823,0.00019239239605727183
706.2761969103683,0.00019287293853588705
706.3250510534543,0.0001933375924177975
706.3739051965404,0.00019378706849326808
706.4227593396264,0.00019422204306285485
706.4716134827124,0.0001946431594049803
706.5204676257985,0.00019505102921419924
706.5693217688845,0.00019544623400683835
706.6181759119705,0.00019582932649410805
706.6670300550566,0.0001962008318934567
706.7158841981426,0.00019656124922610199
706.7647383412286,0.00019691105256306937
706.8135924843147,0.00019725069222299656
706.8624466274007,0.00019758059592913166
706.9113007704867,0.0001979011699249478
706.9601549135728,0.00019821280004725985
707.0090090566588,0.00019851585275507168
707.0578631997448,0.0001988106761142534
707.1321579702953,0.00019924399356620128
707.2064527408459,0.0001996601303573821
707.2807475113964,0.00020006009461410491
707.3550422819469,0.00020044481937248404
707.4293370524974,0.0002008151687916102
707.503631823048,0.00020117194317591136
707.5779265935985,0.00020151588364609297
707.652221364149,0.00020184767687662193
707.7265161346995,0.0002021679596228686
707.80081090525,0.00020247732274932407
707.8751056758006,0.00020277631479532064
707.9494004463511,0.0002030654452756169
708.0236952169016,0.00020334518779720572
708.0979899874521,0.00020361598295433594
708.1722847580027,0.0002038782409625272
708.2465795285532,0.00020413234405791824
708.3617400961488,0.00020451092645963726
708.4769006637443,0.0002048719843321369
708.5920612313399,0.0002052166133077537
708.7072217989355,0.00020554580257686614
708.8223823665311,0.00020586044837778335
709.0011625225208,0.00020632199652879463
709.1799426785104,0.00020675315179380827
709.3587228345001,0.00020715626348513305
709.5375029904898,0.00020753339200906102
709.7162831464794,0.00020788636004422822
709.8950633024691,0.00020821678944948834
710.0738434584588,0.0002085261309199491
710.3621337891843,0.00020898382091781635
710.6504241199099,0.00020939488409978113
710.9387144506354,0.00020976347330458925
711.227004781361,0.00021009323516795868
711.5152951120865,0.00021038741310816712
711.803585442812,0.0002106489080893447
712.0918757735376,0.00021088032853308603
712.3801661042631,0.00021108403183730317
712.8326069134179,0.00021135294203217982
713.2850477225726,0.00021156622310182003
713.7374885317273,0.00021173029394225797
714.189929340882,0.00021185078848279395
714.6423701500368,0.0002119326825753288
715.0948109591915,0.000211980365126918
715.5472517683462,0.00021199771403311075
715.9996925775009,0.00021198814874304653
716.4521333866556,0.00021195470189098965
716.9045741958104,0.00021190005043697307
717.3570150049651,0.00021182657831646414
717.8094558141198,0.00021173638516814192
718.2618966232745,0.00021163134351564274
718.7143374324293,0.0002115131109169142
719.166778241584,0.00021138316917348573
719.6192190507387,0.0002112428183045417
720.0716598598934,0.00021109322643711969
720.5241006690482,0.00021093541491723857
720.9765414782029,0.00021077031440867012
721.4289822873576,0.00021059873764390076
721.8814230965123,0.00021042140620016714
722.333863905667,0.00021023896589933958
722.7863047148218,0.00021005199799745245
723.5005905102416,0.00020974879912688763
724.2148763056615,0.0002094372984036073
724.9291621010814,0.00020911897783722262
725.6434478965012,0.0002087950692675152
726.8826475549689,0.00020822260176842807
728.1218472134366,0.00020764039932523012
729.3610468719043,0.00020705168537772035
730.6002465303719,0.00020645877572230266
731.8394461888396,0.00020586334888633305
733.0786458473073,0.00020526664061812212
734.3178455057749,0.0002046695711455466
735.5570451642426,0.00020407283028422795
736.7962448227103,0.0002034769364444949
738.0354444811779,0.00020288227992833684
740.067169350051,0.00020191070514198034
742.0988942189241,0.00020094413048543666
744.1306190877972,0.00019998316257502377
746.1623439566703,0.00019902815501028355
749.4657503409345,0.00019748869803472426
752.7691567251987,0.00019596606222477348
756.072563109463,0.00019446036313489474
759.3759694937272,0.0001929716012241341
762.6793758779914,0.00019149973037654945
765.9827822622557,0.00019004465785208327
771.5361340914488,0.00018763601486958156
777.089485920642,0.00018527367274615955
782.6428377498352,0.00018295678370493928
788.1961895790283,0.00018068448428590486
793.7495414082215,0.0001784559249333265
799.3028932374147,0.00017627027754558704
808.1672281699779,0.00017286841389502384
817.0315631025411,0.0001695705574596518
825.8958980351043,0.00016637354622051824
834.7602329676675,0.0001632742940151517
