time,voltage
0.0,-80.0
<<<<<<< HEAD
0.00029663681329783037,-80.00258972939437
0.0012788484127522063,-80.0095389008971
0.0036964872454977255,-80.02200867449918
0.007729556304278576,-80.03720670375436
0.01386763821850211,-80.05464323311594
0.020005720132725644,-80.06894815827336
0.030991625165848552,-80.09048390846266
0.04847731678061132,-80.11779514076548
0.08142760109059932,-80.15710494504626
0.11437788540058733,-80.1868152522711
0.14732816971057533,-80.21162532349886
0.18027845402056333,-80.23347385644699
0.23596465317733104,-80.26615992839116
0.29165085233409876,-80.29454413695471
0.34733705149086647,-80.31977240843916
0.4438360989955275,-80.35850895287108
0.5403351465001885,-80.39229468512586
0.6955058378947463,-80.43959313027162
0.850676529289304,-80.48102969724384
1.1297549300680545,-80.54657325258668
1.4088333308468048,-80.60603674005574
1.6879117316255552,-80.66208743627301
1.9669901324043055,-80.71545656534204
2.246068533183056,-80.76649307862093
2.7364610929430726,-80.85151316156747
3.4824686501849653,-80.9718377157184
4.2284762074268585,-81.08365968572758
4.974483764668751,-81.18821807853658
5.720491321910643,-81.28609776155344
6.466498879152535,-81.37776852714524
7.686537229030638,-81.51543085139602
8.906575578908742,-81.63931635806094
10.126613928786846,-81.75079166879031
12.036342014018237,-81.90300961249359
13.946070099249628,-82.031368320805
15.855798184481019,-82.13920820189715
19.06776964373801,-82.28230462236458
22.279741102995004,-82.38734425794061
25.491712562251998,-82.46371109115717
28.70368402150899,-82.5188232134565
31.915655480765984,-82.55845793473573
35.12762694002298,-82.58705072981252
40.05899915125141,-82.61703696468496
44.99037136247985,-82.63745758844324
49.921743573708284,-82.65356146458589
54.85311578493672,-82.66849648554569
63.16653134927772,-82.69520323161568
71.47994691361872,-82.72593662020283
79.79336247795972,-82.76088621869683
88.10677804230072,-82.79825035679461
96.42019360664172,-82.83528090536606
104.73360917098272,-82.86951059083923
113.04702473532372,-82.8996095883871
121.36044029966472,-82.92529762581157
129.67385586400573,-82.94647354043008
137.98727142834673,-82.96303194407248
146.30068699268773,-82.97518831983507
154.61410255702873,-82.9835621700477
162.92751812136973,-82.98888508801964
171.24093368571073,-82.99181852214957
179.55434925005173,-82.9928342690396
187.86776481439273,-82.99235441328537
196.18118037873373,-82.99083045544094
204.49459594307473,-82.98869510027434
212.80801150741573,-82.9862231204736
221.12142707175673,-82.98360530498329
229.43484263609773,-82.98094873338667
237.74825820043873,-82.97838061398626
246.06167376477973,-82.97601037094431
254.37508932912073,-82.97388487833207
262.68850489346175,-82.97196519707295
271.0019204578028,-82.9702478263334
279.3153360221438,-82.9687331878799
287.62875158648484,-82.9674488442482
295.94216715082587,-82.96636449138961
304.2555827151669,-82.96544863699039
312.5689982795079,-82.96465916584722
320.88241384384895,-82.96401068482783
329.19582940819,-82.96347635869171
337.509244972531,-82.96305135617732
345.82266053687204,-82.96269236296729
354.13607610121306,-82.96240281889708
362.4494916655541,-82.96215808192187
370.7629072298951,-82.96197778623193
379.07632279423615,-82.96182383944867
387.3897383585772,-82.96170960959452
395.7031539229182,-82.96160395860643
404.01656948725923,-82.96153296783662
412.32998505160026,-82.9614646248751
420.6434006159413,-82.96142735302
428.9568161802823,-82.96138074523789
437.27023174462335,-82.96135888100042
449.7715394681453,-82.96130789613446
462.27284719166727,-82.96124083545728
474.77415491518923,-82.96121563388559
487.2754626387112,-82.96125266252507
499.77677036223315,-82.96129587213558
512.2780780857552,-82.96130175120707
524.7793858092772,-82.96128101722701
545.3029187365963,-82.96124274473394
565.8264516639155,-82.961237484471
586.3499845912346,-82.96125827197453
623.1552498209161,-82.96128658851678
659.9605150505976,-82.96128193421208
696.765780280279,-82.96130576311474
700.0,-82.96130763033804
700.0,-82.96130763033804
700.0000656685636,-82.94869100924542
700.0001803939281,-82.92758832517826
700.0004426097639,-82.88278516953123
700.0007048255998,-82.84085074324254
700.0012065732523,-82.76644294825394
700.0019776364204,-82.66468739662845
700.0033860990726,-82.5071696067139
700.0047945617248,-82.37624279962539
700.006203024377,-82.26256123376749
700.0076114870292,-82.1604268890637
700.0098191134656,-82.01526445068087
700.012026739902,-81.88446836491866
700.0154048491523,-81.70350573671983
700.0187829584027,-81.54116578760684
700.022161067653,-81.393103828577
700.027765996926,-81.17138511854134
700.0333709261989,-80.97281233625131
700.0434285030924,-80.65826317252656
700.0534860799859,-80.38030131232708
700.0635436568793,-80.12779311287497
700.0736012337728,-79.89511281748536
700.0836588106663,-79.67862765989271
700.1000360213759,-79.35416335798136
700.1164132320855,-79.05656844670884
700.1327904427951,-78.77977561851061
700.1581991595457,-78.38323375125168
700.1836078762963,-78.01854421289822
700.2217880309599,-77.5170431693351
700.2791268850515,-76.84164533951059
700.336465739143,-76.23752359502392
700.3938045932346,-75.68914282614635
700.4511434473261,-75.18282129990314
700.5084823014176,-74.70825839733851
700.5658211555092,-74.25934879393492
700.6231600096007,-73.83222549613113
700.7166743507828,-73.17341036950292
700.8101886919649,-72.55216106954829
700.9037030331469,-71.96057944098754
700.997217374329,-71.39240310361296
701.0907317155111,-70.84286047670118
701.245723986796,-69.96420623615775
701.4007162580808,-69.11691331379328
701.5557085293657,-68.29404879320826
701.7107008006506,-67.49048383157258
701.8656930719354,-66.70237226948733
702.1211465780283,-65.42977263914786
702.3766000841212,-64.18199919770252
702.632053590214,-62.95025218393402
702.8875070963069,-61.72426393990625
703.1429606023997,-60.48992766177352
703.3984141084926,-59.23008727371163
703.6538676145855,-57.90081654214992
703.7177309911087,-57.54511442054138
703.781594367632,-57.16853927887427
703.8454577441553,-56.766525085067464
703.9093211206786,-56.33056706789036
703.9731844972018,-55.838022117388064
703.9891503413327,-55.70099583799213
704.0,-55.602694657989574
704.0,-55.602694657989574
704.0000656687529,-55.61470073960746
704.0001803968128,-55.6347364506997
704.0004426832631,-55.677106705358284
704.0007049697135,-55.71660314845555
704.0012068129304,-55.78632926934063
704.0019786684009,-55.88093666150154
704.0033885414599,-56.02527461737909
704.004798414519,-56.14289316943817
704.006208287578,-56.24315814235048
704.0076181606371,-56.331777950703255
704.0098273734096,-56.455539481354535
704.0120365861821,-56.56472054430366
704.0154178414483,-56.71222723513251
704.0187990967145,-56.84060730201688
704.0221803519806,-56.95420637541994
704.0277982822463,-57.117840333093305
704.033416212512,-57.25684958789911
704.0434967455863,-57.460699674344
704.0535772786606,-57.62279817867718
704.0636578117349,-57.7537503528277
704.0737383448092,-57.85844403950991
704.0838188778835,-57.939465458398324
704.0996502346024,-58.02121749440767
704.1154815913214,-58.0472649203534
704.1313129480404,-58.01027418167761
704.1471443047594,-57.89295354948421
704.1629756614784,-57.66539822321141
704.1788070181974,-57.28449695794229
704.185353485873,-57.070367482374294
704.1918999535485,-56.81733868469963
704.198446421224,-56.52425057072277
704.2049928888996,-56.19248549801174
704.2115393565751,-55.82592118273306
704.2180858242507,-55.43064209113601
704.2246322919262,-55.01404978067312
704.2311787596018,-54.58353001142934
704.2377252272773,-54.145341479276375
704.2442716949529,-53.70419503829769
704.2508181626284,-53.2634414987553
704.257364630304,-52.82547800532411
704.2639110979795,-52.39207683305476
704.2740021133106,-51.736019115849196
704.2840931286418,-51.097570457476564
704.2941841439729,-50.47884721107559
704.304275159304,-49.881046983562165
704.3143661746351,-49.30530204035676
704.3244571899662,-48.75241485220139
704.3345482052973,-48.22261443651933
704.3446392206284,-47.71545484569748
704.3632600990748,-46.83820347038562
704.3818809775211,-46.03352633622134
704.4005018559674,-45.29699748333017
704.4191227344137,-44.62313597588124
704.43774361286,-44.00811741654535
704.4563644913063,-43.446195724692366
704.4749853697526,-42.934146374832146
704.493606248199,-42.465544107648626
704.5122271266453,-42.03752552319255
704.5308480050916,-41.647452549845475
704.5494688835379,-41.29342770901397
704.5680897619842,-40.969352745354506
704.5867106404305,-40.67493138978984
704.6053315188768,-40.4057137419704
704.6239523973231,-40.163927920849815
704.6425732757695,-39.94186214720098
704.6611941542158,-39.745019150652716
704.6798150326621,-39.56363715184336
704.6984359111084,-39.4083833037213
704.7170567895547,-39.26261662434578
704.7298163218493,-39.1718542183904
704.7425758541439,-39.09669646886269
704.7553353864384,-39.02997349730116
704.768094918733,-38.96710040710906
704.7808544510276,-38.910490795857925
704.7936139833222,-38.86217191389829
704.8063735156168,-38.820705718001484
704.8191330479114,-38.78530125223387
704.8318925802059,-38.75737514744406
704.8510820924538,-38.72901817787657
704.8702716047017,-38.717573263303876
704.8894611169495,-38.72181214956143
704.9086506291974,-38.74211040673771
704.9402668282877,-38.8099793900397
704.971883027378,-38.92507468442065
705.0034992264683,-39.08701135616557
705.0351154255586,-39.298855893147795
705.0667316246489,-39.56060204655448
705.0983478237392,-39.87451183569018
705.1299640228295,-40.239762429306396
705.1615802219198,-40.65803461660554
705.1931964210102,-41.12599536453264
705.2248126201005,-41.64267172554001
705.2564288191908,-42.20093720292205
705.2880450182811,-42.794449938703764
705.3196612173714,-43.41494940003653
705.3512774164617,-44.052332403655534
705.382893615552,-44.696494451147146
705.4145098146423,-45.33759503245397
705.4461260137326,-45.967508572125375
705.4777422128229,-46.579781808864126
705.5093584119132,-47.1700247154934
705.5409746110035,-47.73547127779378
705.5725908100939,-48.27450062330633
705.6203384986177,-49.03966928173331
705.6680861871415,-49.7469212364134
705.7158338756653,-50.40077812642855
705.7635815641892,-51.00539554730019
705.811329252713,-51.56625243105441
705.8590769412368,-52.08720585237267
705.9068246297606,-52.57253757811444
705.9545723182845,-53.02537354271872
706.0023200068083,-53.44903592039829
706.0744344623191,-54.039142752120675
706.1465489178299,-54.577167599786975
706.2186633733407,-55.06992910594752
706.2907778288516,-55.523521046585245
706.4025561222953,-56.160486060099466
706.5143344157391,-56.7313979684557
706.6261127091828,-57.24912170121956
706.7944636813027,-57.94916489610252
706.9628146534225,-58.575249015663594
707.1311656255423,-59.14488503257866
707.3960305112803,-59.95456034422152
707.6608953970183,-60.68318124273962
707.9257602827563,-61.34826134743261
708.1906251684943,-61.963381952800475
708.4554900542323,-62.53856639170058
708.7203549399703,-63.07905653054469
708.9852198257083,-63.588051418916116
709.2500847114463,-64.06936118157824
709.5149495971843,-64.52641436299504
709.7798144829223,-64.96093976890094
710.1884979875401,-65.59162134715658
710.5971814921579,-66.17871494917738
711.0058649967757,-66.72763250061494
711.4145485013935,-67.24267358275698
711.8232320060113,-67.72716912017772
712.4781680239573,-68.44575110187631
713.1331040419034,-69.10275958220022
713.7880400598494,-69.70702257401454
714.4429760777955,-70.26497041486233
715.0979120957415,-70.78139741646638
716.1885506257595,-71.56341611331666
717.2791891557774,-72.2635444737048
718.3698276857954,-72.89473033048353
719.4604662158133,-73.46745719004863
720.5511047458313,-73.99143162164647
721.6417432758492,-74.47372165734312
722.7323818058671,-74.92019780720202
723.8230203358851,-75.33554689944961
724.913658865903,-75.7237992208695
726.64423210466,-76.29079958014678
728.3748053434169,-76.8068234770259
730.1053785821739,-77.27955461697235
731.8359518209309,-77.71494989089334
733.5665250596878,-78.11687182330705
735.2970982984448,-78.48941434426969
737.0276715372017,-78.83522925016149
738.7582447759587,-79.15701393404227
739.9999999999835,-79.37416507248167
740.0000000000082,-79.37416507248167
740.0000000000082,-79.37416507248167
=======
0.00029899758690920896,-80.0025675378232
0.0012925203502977753,-80.00947013682273
0.0037395677367989947,-80.02184203488196
0.007828007369450544,-80.03692404524071
0.0140548171894894,-80.05422402648031
0.020281627009528257,-80.06840861413114
0.031425893698547896,-80.08975200986026
0.04917746481208954,-80.116823930169
0.08259600687067759,-80.15573336686562
0.11601454892926563,-80.18513331019231
0.14943309098785368,-80.20968032143581
0.18285163304644172,-80.23129221152286
0.2393588308500382,-80.26362877317337
0.29586602865363465,-80.29169495648682
0.3523732264572311,-80.31663001741559
0.4504647273973942,-80.35496651115271
0.5485562283375572,-80.38838656372728
0.7064046593227961,-80.43519459912413
0.8642530903080349,-80.47620301415766
1.1479777129743791,-80.54106418443739
1.4317023356407232,-80.59995965283353
1.7154269583070674,-80.6555038730922
1.9991515809734115,-80.70839566044171
2.2828762036397556,-80.75896700359958
2.783090147509044,-80.8434522197854
3.541971550708208,-80.9625853453477
4.3008529539073725,-81.07315597911274
5.059734357106537,-81.17639639457731
5.818615760305701,-81.27289704578786
6.577497163504866,-81.36313144682966
7.814869873476266,-81.49794501785505
9.052242583447667,-81.61893289226988
10.289615293419068,-81.72747369938511
12.227882924952894,-81.87516365053281
14.16615055648672,-81.99898299854306
16.104418188020546,-82.10234317442483
19.341822308838886,-82.23739455362423
22.579226429657226,-82.33536725807977
25.816630550475566,-82.40558921991828
29.054034671293905,-82.45540234059798
32.291438792112245,-82.49050135010744
35.528842912930585,-82.51524187184549
40.506315360527246,-82.54049721979055
45.48378780812391,-82.55733919588604
50.46126025572057,-82.57079341858976
55.43873270331723,-82.58381098823622
63.82519383488951,-82.60847563328734
72.2116549664618,-82.63815967436884
80.59811609803407,-82.67263223096283
88.98457722960634,-82.70980335709827
97.37103836117862,-82.74674554481673
105.7574994927509,-82.78089515579478
114.14396062432317,-82.8108841673421
122.53042175589545,-82.83643376640282
130.91688288746772,-82.85744961362897
139.30334401904,-82.87383700862773
147.68980515061227,-82.88582634239154
156.07626628218455,-82.89405658085505
164.46272741375682,-82.89926979006223
172.8491885453291,-82.90213417595653
181.23564967690137,-82.903119078218
189.62211080847365,-82.90264464726245
198.00857194004593,-82.9011572284338
206.3950330716182,-82.89908810459687
214.78149420319048,-82.89670275153819
223.16795533476275,-82.89418781593784
231.55441646633503,-82.89164185069592
239.9408775979073,-82.8891897810455
248.32733872947958,-82.88693633764117
256.7137998610519,-82.88492640899007
265.10026099262416,-82.88311256030005
273.48672212419643,-82.88149232618441
281.8731832557687,-82.88006415903217
290.259644387341,-82.87886075430806
298.64610551891326,-82.87784747601599
307.03256665048553,-82.87699507032623
315.4190277820578,-82.87625754659679
323.8054889136301,-82.87565691350397
332.19195004520236,-82.87516199114883
340.57841117677464,-82.87477353904947
348.9648723083469,-82.87444209882318
357.3513334399192,-82.87417824075725
365.73779457149146,-82.87395168619761
374.12425570306374,-82.873791023031
382.510716834636,-82.87364931535735
390.8971779662083,-82.87354910087139
399.28363909778056,-82.87345022232796
407.67010022935284,-82.87338978104394
416.0565613609251,-82.87332481262474
424.4430224924974,-82.87329637808416
432.82948362406967,-82.87325034533578
441.21594475564194,-82.8732354953824
449.6024058872142,-82.87320024681473
457.9888670187865,-82.87319996580943
466.37532815035877,-82.8731718016141
474.76178928193104,-82.87317989094494
483.1482504135033,-82.87315360268269
491.5347115450756,-82.87316660223387
499.92117267664787,-82.8731420963878
508.30763380822015,-82.87316149911936
516.6940949397924,-82.87313509006991
525.0805560713648,-82.87315827857746
533.4670172029371,-82.87317494246753
541.8534783345094,-82.87321620789078
550.2399394660818,-82.87317798291078
558.6264005976541,-82.87317413222398
567.0128617292264,-82.87314678735002
575.3993228607987,-82.87317377314025
583.7857839923711,-82.87315264937678
592.1722451239434,-82.8731775423293
600.5587062555157,-82.87314371335741
608.9451673870881,-82.87317153017801
617.3316285186604,-82.87313978642702
625.7180896502327,-82.87317260280135
634.1045507818051,-82.87313489102311
642.4910119133774,-82.87317145726682
650.8774730449497,-82.87312719941907
659.2639341765221,-82.87316915456285
667.6503953080944,-82.8731213175559
676.0368564396667,-82.87316899167776
684.4233175712391,-82.87311408329313
692.8097787028114,-82.8731674143684
700.0,-82.87315808274327
700.0,-82.87315808274327
700.0000654050467,-82.86048922505765
700.0001794924419,-82.8393285959877
700.0004400456259,-82.79442096139046
700.0007005988098,-82.75237525935869
700.0011996482348,-82.6776774733748
700.0019660146343,-82.57555648975202
700.0033660532541,-82.41738087351625
700.004766091874,-82.28585366077625
700.0061661304939,-82.17163326350534
700.0075661691137,-82.06901253327669
700.0097587736235,-81.92327637141521
700.0119513781333,-81.79194957396754
700.015305243943,-81.61029217015738
700.0186591097527,-81.44729507024294
700.0220129755623,-81.29860823582362
700.0275793443825,-81.07585473476769
700.0331457132027,-80.87633449456855
700.0431303820059,-80.56037217566077
700.0531150508091,-80.28115287274383
700.0630997196123,-80.02750833515898
700.0730843884155,-79.7937860697063
700.0830690572187,-79.57633401146587
700.0993230521809,-79.25050852797767
700.1155770471431,-78.95165788725166
700.1318310421053,-78.67368914529816
700.1570397317565,-78.27558007437626
700.1822484214077,-77.90942245823972
700.2201517754855,-77.40556441760519
700.2580551295633,-76.94598758455359
700.2959584836411,-76.52169528241069
700.3338618377189,-76.12591667442695
700.3717651917967,-75.75348344023219
700.4336012209437,-75.18714717478079
700.5411635142916,-74.29690915081694
700.6487258076395,-73.49112544260595
700.7562881009874,-72.74399921680879
700.8638503943353,-72.04069340764877
700.9714126876831,-71.37142516808623
701.078974981031,-70.72892531632743
701.1865372743789,-70.1076795129153
701.2940995677268,-69.50356200734942
701.4598222231608,-68.59986351974764
701.6255448785948,-67.72166754307223
701.7912675340289,-66.86318730005918
701.9569901894629,-66.02044919611932
702.1227128448969,-65.19042343805393
702.3849037945565,-63.89701052247702
702.6470947442161,-62.61886044975867
703.0438119269777,-60.68636452233223
703.4405291097393,-58.690966277343264
703.5397084054297,-58.16637188760389
703.6388877011201,-57.61524297122953
703.7380669968105,-57.02115793665517
703.8372462925009,-56.35643059613229
703.895816874515,-55.90399796233862
703.9543874565292,-55.357190739506024
703.9690301020327,-55.196254024792694
703.9836727475362,-55.018371056701874
703.9983153930397,-54.81870582858402
704.0,-54.79408921607933
704.0,-54.79408921607933
704.0000654054394,-54.805795588869536
704.0001794979836,-54.82527620961822
704.000440182974,-54.86635476837916
704.0007008679644,-54.90455934251438
704.0011999975826,-54.97185050926799
704.0019685044027,-55.06275318375414
704.0033717705945,-55.200039589466265
704.0047750367863,-55.31032473240617
704.0061783029781,-55.40298354920324
704.0075815691699,-55.483735657521315
704.0097743032317,-55.59436896578728
704.0119670372934,-55.68988137451616
704.0152989369113,-55.81448704623985
704.0186308365293,-55.918759374174456
704.0219627361472,-56.00683730482853
704.0275595605868,-56.125562382732895
704.0331563850265,-56.213817712463445
704.0387532094661,-56.27672430602969
704.0474459592706,-56.3294491365614
704.0561387090751,-56.331224273069246
704.0648314588796,-56.2811674502405
704.073524208684,-56.17438276105965
704.0822169584885,-56.003583600964554
704.090909708293,-55.761052355084736
