time,voltage
0.0,6.5e-05
0.0002989975869093987,6.500000014843275e-05
0.0012925203502985587,6.500000064164473e-05
0.003739567736800839,6.500000185638318e-05
0.007828007369448147,6.500000388580493e-05
0.014054817189508347,6.500000697639531e-05
0.020281627009568547,6.500001006671281e-05
0.03142589369846535,6.500001559694631e-05
0.049177464812045914,6.50000244043377e-05
0.08259600687046753,6.500004097911671e-05
0.11601454892888916,6.500005754649991e-05
0.14943309098731078,6.500007410628354e-05
0.1828516330457324,6.500009065833451e-05
0.23935883084848247,6.500011862806757e-05
0.2958660286512325,6.500014657450002e-05
0.35237322645398256,6.500017449692694e-05
0.45046472738883697,6.500022290807395e-05
0.5485562283236913,6.500027124087768e-05
0.7064046592979748,6.500034884469218e-05
0.8642530902722583,6.500042622472527e-05
1.1479777129412598,6.500056470856349e-05
1.4317023356102614,6.500070236213789e-05
1.715426958279263,6.500083912865276e-05
1.9991515809482645,6.500097495482081e-05
2.282876203617266,6.500110979494393e-05
2.783090147448483,6.500134500439839e-05
3.5419715506172067,6.500169534919922e-05
4.300852953785931,6.500203742002456e-05
5.059734356954655,6.500237081342941e-05
5.818615760123379,6.500269528782386e-05
6.577497163292103,6.500301071822655e-05
7.814869873225697,6.500350566844122e-05
9.052242583159291,6.500397681286115e-05
10.289615293092886,6.500442469747566e-05
12.22788292448321,6.500508177615592e-05
14.166150555873532,6.500568803607651e-05
16.104418187263853,6.500624784702057e-05
19.34182230796085,6.500709146305307e-05
22.579226428657847,6.500783909209975e-05
25.816630549354844,6.500850802721333e-05
29.05403467005184,6.500911364885266e-05
32.29143879074884,6.500966852429373e-05
35.528842911445835,6.501018214460509e-05
40.506315360914535,6.50109073524918e-05
45.483787810383234,6.501157030510516e-05
50.46126025985193,6.501218334159555e-05
55.43873270932063,6.501275453503403e-05
63.82519384551253,6.501363343046113e-05
72.21165498170443,6.501441561821573e-05
80.59811611789632,6.501511072484279e-05
88.98457725408822,6.501571833643646e-05
97.37103839028012,6.501624762252156e-05
105.75749952647202,6.501671036560438e-05
114.14396066266391,6.501710811658643e-05
122.53042179885581,6.501744504904566e-05
130.9168829350477,6.50177348490141e-05
139.30334407123962,6.501798794442826e-05
147.6898052074315,6.501820626169631e-05
156.0762663436234,6.501839160906589e-05
164.46272747981527,6.501855152222755e-05
172.84918861600715,6.501869448082715e-05
181.23564975219904,6.50188233716855e-05
189.62211088839092,6.501893689299735e-05
198.0085720245828,6.50190363151619e-05
206.3950331607747,6.50191261108639e-05
214.78149429696657,6.50192091420143e-05
223.16795543315845,6.501928490381294e-05
231.55441656935034,6.501935294349764e-05
239.94087770554222,6.501941411037113e-05
248.3273388417341,6.501947009560691e-05
256.713799977926,6.501952156517893e-05
265.10026111411787,6.501956824234814e-05
273.48672225030975,6.501961017762737e-05
281.87318338650164,6.501964814218793e-05
290.2596445226935,6.501968266586438e-05
298.6461056588854,6.501971402721151e-05
307.0325667950773,6.501974227467241e-05
315.41902793126917,6.501976763588203e-05
323.80548906746105,6.50197903697662e-05
332.19195020365294,6.501981086068991e-05
340.5784113398448,6.501982927533798e-05
348.9648724760367,6.501984584380737e-05
357.3513336122286,6.501986057126426e-05
365.73779474842047,6.501987369348814e-05
374.12425588461235,6.50198854027169e-05
382.51071702080424,6.501989597567192e-05
390.8971781569961,6.501990535100451e-05
399.283639293188,6.501991369848645e-05
407.6701004293799,6.501992104637683e-05
416.05656156557177,6.501992767009272e-05
424.44302270176365,6.501993354668712e-05
432.82948383795554,6.501993882970043e-05
441.2159449741474,6.50199434094373e-05
449.6024061103393,6.501994755054467e-05
457.9888672465312,6.501995117871853e-05
466.37532838272307,6.501995449433369e-05
474.76178951891495,6.501995733917307e-05
483.14825065510684,6.501995994688509e-05
491.5347117912987,6.501996215502515e-05
499.9211729274906,6.501996423935285e-05
508.3076340636825,6.501996598144132e-05
516.6940951998744,6.501996763718764e-05
525.0805563360663,6.501996897029384e-05
533.4670174722581,6.501997004184174e-05
541.85347860845,6.50199709401807e-05
550.2399397446419,6.501997187619635e-05
558.6264008808338,6.501997276993289e-05
567.0128620170257,6.501997379729364e-05
575.3993231532176,6.501997440684339e-05
583.7857842894094,6.501997499291179e-05
592.1722454256013,6.501997551143211e-05
600.5587065617932,6.501997613778003e-05
608.9451676979851,6.501997646496712e-05
617.331628834177,6.501997695087909e-05
625.7180899703689,6.501997724170766e-05
634.1045511065607,6.501997765487802e-05
642.4910122427526,6.501997778765376e-05
650.8774733789445,6.501997814196918e-05
659.2639345151364,6.501997826924924e-05
667.6503956513283,6.50199786227005e-05
676.0368567875202,6.50199786345518e-05
684.423317923712,6.501997891816545e-05
692.8097790599039,6.501997890975844e-05
700.0,6.501997905519428e-05
700.0,6.501997905519428e-05
700.0000522420456,6.501997905519519e-05
700.0001359569009,6.501997905519665e-05
700.0003166485938,6.501997905519981e-05
700.0004973402866,6.501997905520297e-05
700.0008642992952,6.501997905520938e-05
700.0012312583038,6.501997905521579e-05
700.0021390084407,6.501997905523164e-05
700.0030467585776,6.501997905524747e-05
700.0039545087145,6.501997905526326e-05
700.0048622588514,6.501997905527894e-05
700.0062844100238,6.501997905530313e-05
700.0077065611962,6.501997905532665e-05
700.0091287123686,6.50199790553491e-05
700.0115012747596,6.501997905538293e-05
700.0138738371505,6.501997905541048e-05
700.0175981392669,6.50199790554357e-05
700.0213224413832,6.501997905543092e-05
700.0277470731502,6.501997905532312e-05
700.0341717049172,6.501997905505308e-05
700.0405963366842,6.501997905457856e-05
700.0470209684512,6.501997905386761e-05
700.0534456002182,6.501997905289505e-05
700.0638818030036,6.501997905071773e-05
700.074318005789,6.501997904776225e-05
700.0847542085744,6.501997904401645e-05
700.1007670372347,6.501997903680068e-05
700.1167798658951,6.501997902796916e-05
700.1327926945554,6.501997901779581e-05
700.1622302616747,6.501997899680297e-05
700.191667828794,6.501997897527305e-05
700.2211053959134,6.501997895621791e-05
700.2505429630327,6.501997894316585e-05
700.279980530152,6.501997893978379e-05
700.3094180972713,6.501997894984867e-05
700.3567919861441,6.501997900436799e-05
700.4041658750169,6.501997912157746e-05
700.4515397638897,6.501997932032111e-05
700.4989136527626,6.501997962075487e-05
700.5462875416354,6.501998004441881e-05
700.625065206475,6.50199810850463e-05
700.7453150879396,6.501998372618608e-05
700.8655649694042,6.501998807870978e-05
700.9858148508688,6.501999473625461e-05
701.1060647323334,6.502000443269874e-05
701.226314613798,6.502001808508426e-05
701.3465644952626,6.502003684892273e-05
701.4668143767271,6.502006219276579e-05
701.6652464522122,6.502012376851814e-05
701.8004387216729,6.50201850281289e-05
701.8342367890381,6.50202034757565e-05
701.8680348564033,6.502022338244172e-05
701.9018329237684,6.502024486296322e-05
701.9356309911336,6.50202680403973e-05
701.9694290584988,6.502029304887912e-05
702.003227125864,6.502032003528884e-05
702.0370251932292,6.502034916078555e-05
702.0708232605944,6.50203806027e-05
702.0917108538403,6.50204012769296e-05
702.1125984470862,6.502042296094483e-05
702.1334860403321,6.50204457090321e-05
702.154373633578,6.502046957989387e-05
702.1651791433657,6.50204823901868e-05
702.1723256213875,6.502049104169688e-05
702.1794720994093,6.502049983921926e-05
702.1866185774311,6.502050878579886e-05
702.1937650554529,6.502051788463785e-05
702.2009115334747,6.502052713910928e-05
702.2080580114965,6.50205365527976e-05
702.2152044895183,6.50205461295355e-05
702.2223509675401,6.502055587344509e-05
702.229497445562,6.502056578897855e-05
702.2366439235838,6.502057588095624e-05
702.2437904016056,6.502058615460235e-05
702.2509368796274,6.50205966155778e-05
702.2619514223546,6.502061311980738e-05
702.2729659650819,6.502063010849671e-05
702.2839805078091,6.502064760942104e-05
702.2949950505364,6.502066565352766e-05
702.3060095932636,6.502068427523429e-05
702.3170241359909,6.502070351264451e-05
702.3280386787181,6.502072340777178e-05
702.3390532214454,6.50207440068034e-05
702.3500677641726,6.502076536039596e-05
702.3610823068999,6.502078752399606e-05
702.3720968496272,6.502081055819402e-05
702.3831113923544,6.502083452911875e-05
702.3941259350817,6.502085950888113e-05
702.4051404778089,6.502088557607224e-05
702.4161550205362,6.502091281632693e-05
702.4271695632634,6.5020941322964e-05
702.4381841059907,6.502097119771948e-05
702.4491986487179,6.502100255159142e-05
702.4602131914452,6.502103550582125e-05
702.4712277341724,6.502107019303968e-05
702.4822422768997,6.502110675861693e-05
702.4932568196269,6.502114536226617e-05
702.5042713623542,6.502118617996854e-05
702.5152859050814,6.502122940630561e-05
702.5263004478087,6.502127525731913e-05
702.537314990536,6.502132397405712e-05
702.5483295332632,6.502137582703253e-05
702.5593440759905,6.502143112190411e-05
702.5703586187177,6.502149020682672e-05
702.581373161445,6.502155348210013e-05
702.5923877041722,6.50216214130353e-05
702.6105420638792,6.502174506054245e-05
702.6230902188917,6.502184041906569e-05
702.6356383739042,6.502194537968606e-05
702.6481865289167,6.502206169621804e-05
702.6607346839291,6.502219166023983e-05
702.6732828389416,6.502233825800954e-05
702.6858309939541,6.502250544316802e-05
702.6983791489666,6.502269842196001e-05
702.7109273039791,6.50229239498679e-05
702.7234754589916,6.502319072933196e-05
702.7360236140041,6.50235098626493e-05
702.7485717690166,6.50238953533898e-05
702.7611199240291,6.502436466094981e-05
702.7736680790416,6.502493930777195e-05
702.7862162340541,6.502564551879828e-05
702.7987643890666,6.502651485433032e-05
702.8113125440791,6.502758479572028e-05
702.8238606990916,6.502889925196188e-05
702.8364088541041,6.503050895872989e-05
702.8489570091166,6.503247174075377e-05
702.8615051641291,6.503485261686695e-05
702.8740533191416,6.503772374602921e-05
702.8866014741541,6.504116422962735e-05
702.8991496291666,6.504525979184227e-05
702.9116977841791,6.505010235916096e-05
702.9242459391916,6.505578955968772e-05
702.9367940942041,6.506242416460331e-05
702.9493422492166,6.507011349433936e-05
702.961890404229,6.50789688088586e-05
702.9744385592415,6.508910469689388e-05
702.9942604372462,6.510801067168549e-05
703.0140823152509,6.513087754221917e-05
703.0339041932556,6.51581862693575e-05
703.0537260712603,6.51904209938553e-05
703.0735479492649,6.522806451887214e-05
703.0933698272696,6.527159447433336e-05
703.1131917052743,6.532147998399846e-05
703.133013583279,6.53781794531891e-05
703.1528354612836,6.544213755614267e-05
703.1726573392883,6.551378314218659e-05
703.192479217293,6.559352736665407e-05
703.2123010952977,6.568176205106109e-05
703.2321229733024,6.577885824801559e-05
703.251944851307,6.588516496975751e-05
703.2717667293117,6.600100805400273e-05
703.2915886073164,6.612668915572181e-05
703.3114104853211,6.626248485568938e-05
703.3312323633257,6.640864587192806e-05
703.3510542413304,6.656539635765603e-05
703.3708761193351,6.673293327249674e-05
703.3906979973398,6.69114257659505e-05
703.4105198753444,6.710101485425351e-05
703.4303417533491,6.730181279626731e-05
703.4501636313538,6.751390274817401e-05
703.4699855093585,6.773733846793386e-05
703.4898073873632,6.797214407618069e-05
703.5096292653678,6.821831389160047e-05
703.5294511433725,6.847581236151651e-05
703.5492730213772,6.874457411110397e-05
703.5690948993819,6.90245041392344e-05
703.5889167773865,6.931547819172936e-05
703.6087386553912,6.961734334697385e-05
703.6389427150139,7.009784392004573e-05
703.6691467746365,7.060245031159159e-05
703.6993508342591,7.113027306350936e-05
703.7295548938818,7.168030953607988e-05
703.7597589535044,7.225146666008236e-05
703.789963013127,7.2842582914237e-05
703.8201670727497,7.345245374360507e-05
703.8503711323723,7.407985836134281e-05
703.8805751919949,7.47235842648417e-05
703.9107792516176,7.538244756854272e-05
703.9409833112402,7.605530866346296e-05
703.9711873708628,7.67410831803164e-05
704.0,7.74063614092157e-05
704.0,7.74063614092157e-05
704.0000522425231,7.740757700256736e-05
704.0001360017257,7.740952601901573e-05
704.0003172911204,7.741374488805532e-05
704.0004985805151,7.741796415183455e-05
704.000865685861,7.742650910768461e-05
704.0012327912068,7.743505550004296e-05
704.002138838405,7.745615558869472e-05
704.0030448856032,7.747726537045997e-05
704.0039509328014,7.749838490614603e-05
704.0048569799997,7.751951420316608e-05
704.0062792785959,7.755270229508526e-05
704.0077015771922,7.75859143558804e-05
704.0091238757884,7.761915033049106e-05
704.0114993017702,7.7674711916541e-05
704.013874727752,7.773033981303427e-05
704.0176082677363,7.781790561596112e-05
704.0213418077205,7.790563394534302e-05
704.027824276517,7.805833829581273e-05
704.0343067453134,7.821152474592166e-05
704.0407892141099,7.836518782224387e-05
704.0472716829063,7.851932091167578e-05
704.0537541517027,7.867391675934946e-05
704.0643488145666,7.89275562750874e-05
704.0749434774306,7.918237306143704e-05
704.0855381402945,7.943832791801938e-05
704.1016878626172,7.983058168874073e-05
704.1178375849398,8.022523476159989e-05
704.1339873072625,8.062213897878795e-05
704.1501370295852,8.102114751618496e-05
704.1662867519078,8.142211700903019e-05
704.1824364742305,8.182490943892276e-05
704.1985861965532,8.222939301391415e-05
704.2228632919453,8.28403409596525e-05
704.2471403873374,8.34544245659416e-05
704.2714174827295,8.407126690591295e-05
704.2956945781216,8.4690515687114e-05
704.3199716735137,8.531184215353088e-05
704.3442487689058,8.593493971385325e-05
704.3685258642979,8.65595219305948e-05
704.39280295969,8.71853204172639e-05
704.4170800550821,8.781208323308199e-05
704.4413571504742,8.843957380895774e-05
704.4656342458663,8.906757002431766e-05
704.4899113412584,8.969586312685258e-05
704.5141884366506,9.032425655186973e-05
704.5384655320427,9.095256490740484e-05
704.5627426274348,9.158061324386991e-05
704.5870197228269,9.220823646870476e-05
704.626221278661,9.322040349887142e-05
704.6654228344951,9.423044861766388e-05
704.7046243903292,9.523781443212899e-05
704.7438259461633,9.624199076416196e-05
704.7830275019974,9.724251044092831e-05
704.8222290578315,9.823894578249814e-05
704.8614306136656,9.923090524018676e-05
704.9006321694997,0.00010021803018157708
704.9398337253338,0.00010119999207082139
704.9990085321276,0.00010267182705173398
705.0581833389215,0.00010413029254640329
705.1173581457153,0.00010557458049885446
705.1765329525092,0.00010700398760188849
705.2357077593031,0.00010841790414474836
705.2948825660969,0.00010981580441852401
705.3540573728908,0.00011119723791600912
705.4132321796847,0.00011256182148598995
705.4724069864785,0.0001139092325592898
705.5315817932724,0.0001152392030824217
705.5907566000662,0.0001165515145198161
705.6499314068601,0.00011784599323541226
705.709106213654,0.00011912250628011789
705.7682810204478,0.00012038095759027637
705.8274558272417,0.00012162128458025802
705.8866306340356,0.00012284345504489226
705.9458054408294,0.00012404746432644688
706.0049802476233,0.00012523333269900925
706.0641550544171,0.00012640110291952557
706.123329861211,0.00012755083801993912
706.1825046680049,0.00012868261940389102
706.2416794747987,0.00012979654509991486
706.3008542815926,0.00013089272809297997
706.3600290883865,0.00013197129476184236
706.4192038951803,0.00013303238353520462
706.4783787019742,0.00013407614366709524
706.537553508768,0.00013510273401941286
706.5967283155619,0.00013611232190945225
706.6559031223558,0.0001371050821111038
706.7150779291496,0.00013808119596680845
706.7742527359435,0.00013904085052034051
706.8334275427374,0.0001399842376755238
706.8926023495312,0.00014091155344395805
706.9517771563251,0.00014182299728759964
707.0109519631189,0.00014271877150781302
707.0701267699128,0.00014359908066305957
707.1293015767067,0.000144464131042196
707.1884763835005,0.00014531413020615482
707.2476511902944,0.00014614928657568225
707.3068259970883,0.0001469698090469213
707.3660008038821,0.00014777590664209641
707.425175610676,0.00014856778820309316
707.4843504174698,0.00014934566211792066
707.5435252242637,0.00015010973606829081
707.6027000310576,0.0001508602167997886
707.6618748378514,0.00015159730991897355
707.7210496446453,0.00015232121971259504
707.8145153119591,0.00015343825999297956
707.9079809792729,0.0001545237069783239
708.0014466465867,0.00015557833984381245
708.0949123139005,0.00015660292523726795
708.1883779812143,0.00015759821643954975
708.2818436485281,0.00015856495266616564
708.375309315842,0.00015950385847419968
708.4687749831558,0.00016041564329027436
708.5622406504696,0.00016130100106933817
708.6557063177834,0.00016216061006691705
708.7491719850972,0.00016299513269837842
708.842637652411,0.00016380521547043343
708.9361033197248,0.0001645914889839419
709.0295689870386,0.00016535456800838066
709.1809460759015,0.00016654277510242738
709.3323231647644,0.00016767416590781706
709.4837002536273,0.00016875109512772948
709.6350773424901,0.00016977581641897896
709.868338893413,0.000171257587325782
710.1016004443359,0.00017262794381051212
710.3348619952587,0.00017389384154965458
710.5681235461816,0.00017506177196401562
710.8013850971045,0.00017613779474941448
711.0346466480273,0.00017712756778224102
711.2679081989502,0.00017803637591376029
711.6563277999034,0.0001793833042374116
712.0447474008565,0.00018054021386438112
712.4331670018097,0.00018152578594632788
712.8215866027629,0.0001823567885723259
713.210006203716,0.00018304830457922238
713.5984258046692,0.00018361390905136
714.2199271998134,0.00018428718118685116
714.8414285949575,0.00018471299133880755
715.4629299901017,0.00018492843515619558
716.0844313852458,0.00018496508236591892
716.70593278039,0.00018484988712829024
717.3274341755341,0.00018460584880854755
717.9489355706783,0.00018425257272218764
718.5704369658224,0.00018380677634889607
719.1919383609666,0.0001832827328135373
719.8134397561107,0.00018269264274460586
720.8414150883802,0.00018159916115061928
721.8693904206498,0.000180391885392837
722.8973657529193,0.00017910039164617883
723.9253410851888,0.00017774764345966992
724.9533164174584,0.00017635162328286802
725.9812917497279,0.00017492636804100376
727.0092670819975,0.00017348276921275025
728.037242414267,0.00017202925290490123
729.0652177465365,0.0001705723477605348
730.093193078806,0.0001691171187085184
731.1211684110756,0.00016766749493895585
732.1491437433451,0.0001662265131817902
733.1771190756147,0.00016479651298855817
734.2050944078842,0.00016337928608777587
735.2330697401537,0.00016197619576038884
736.2610450724233,0.00016058826952763407
737.2890204046928,0.0001592162721128222
738.3169957369623,0.00015786076084374845
739.3449710692319,0.00015652212998606312
740.3729464015014,0.00015520064480817246
741.4009217337709,0.0001538964689160894
742.4288970660405,0.0001526096859140219
743.45687239831,0.00015134031576448232
744.4848477305795,0.00015008832803736568
745.5128230628491,0.00014885365254118112
746.5407983951186,0.00014763618761313304
747.5687737273881,0.00014643580683331087
748.5967490596577,0.00014525236424644107
749.6247243919272,0.00014408569860075
750.6526997241967,0.00014293563670925678
752.2413870221827,0.00014119049893517269
753.8300743201687,0.0001394838732480533
755.4187616181547,0.00013781503457611642
758.3971759485164,0.00013478557099978096
761.3755902788781,0.00013188136114542325
764.3540046092398,0.00012909751309990181
769.3050735854617,0.00012472327062976415
774.2561425616836,0.00012064707860666874
779.2072115379056,0.00011684881913645298
784.1582805141275,0.00011330966633797058
791.7137804673653,0.00010836863370887135
799.2692804206031,0.00010393297532378822
806.8247803738409,9.99511071835465e-05
814.3802803270787,9.637659195946392e-05
821.9357802803165,9.31677397220123e-05
829.4912802335543,9.028717587355283e-05
837.0467801867921,8.770136262884704e-05
844.60228014003,8.538016580728877e-05
