time,voltage
0.0,6.5e-05
0.00029702639401385435,6.500000005763481e-05
0.0012811017770143146,6.500000024858146e-05
0.0037035836891833387,6.500000071861532e-05
0.007745764713209809,6.500000150287639e-05
0.013898451895147332,6.500000269652769e-05
0.020051139077084855,6.500000389010138e-05
0.03106312389092749,6.50000060261717e-05
0.04859256547294544,6.500000942599816e-05
0.08161991437855728,6.500001582967766e-05
0.11464726328416913,6.500002223071624e-05
0.14767461218978098,6.500002862873936e-05
0.18070196109539283,6.500003502356685e-05
0.23652336611408645,6.500004582392227e-05
0.29234477113278007,6.500005661398446e-05
0.3481661761514737,6.500006739321692e-05
0.44492716746645256,6.500008605038038e-05
0.5416881587814314,6.50001046715102e-05
0.697299202800048,6.500013453802947e-05
0.8529102468186646,6.500016430224185e-05
1.1327515009652775,6.500021755554099e-05
1.4125927551118904,6.500027043777909e-05
1.6924340092585033,6.500032293494855e-05
1.9722752634051162,6.50003750292446e-05
2.252116517551729,6.500042670972782e-05
2.7441227889870707,6.500051654369544e-05
3.4922702633773595,6.500065054486657e-05
4.240417737767649,6.500078131677263e-05
4.988565212157937,6.500090877538952e-05
5.736712686548225,6.500103288581488e-05
6.4848601609385135,6.500115364623102e-05
7.707760075654756,6.500134391350215e-05
8.930659990370998,6.50015255074336e-05
10.15355990508724,6.500169870260907e-05
12.067987605145078,6.500195387249302e-05
13.982415305202915,6.50021909031766e-05
15.896843005260752,6.500241139569259e-05
19.11305787680683,6.500274895694861e-05
22.32927274835291,6.500305174173229e-05
25.54548761989899,6.500332581726885e-05
28.761702491445067,6.500357649917548e-05
31.977917362991146,6.500380812320803e-05
35.19413223453723,6.500402396893026e-05
40.13316752825274,6.500433022856566e-05
45.07220282196826,6.500461142207192e-05
50.01123811568378,6.500487178560711e-05
54.9502734093993,6.500511409588087e-05
63.2761155635164,6.500548574004822e-05
71.6019577176335,6.500581448643676e-05
79.9277998717506,6.500610409978151e-05
88.25364202586769,6.500635538049511e-05
96.57948417998479,6.500657324235049e-05
104.90532633410189,6.500676295700802e-05
113.23116848821898,6.500692527093731e-05
121.55701064233608,6.500706228755483e-05
129.88285279645316,6.50071797919182e-05
138.20869495057025,6.500728213637519e-05
146.53453710468733,6.500737036347028e-05
154.86037925880441,6.500744532168384e-05
163.1862214129215,6.500751004376502e-05
171.51206356703858,6.500756788196175e-05
179.83790572115566,6.500761999543909e-05
188.16374787527275,6.500766597926362e-05
196.48959002938983,6.500770641997064e-05
204.8154321835069,6.500774300064392e-05
213.141274337624,6.500777680501647e-05
221.46711649174108,6.500780766758029e-05
229.79295864585816,6.500783545601898e-05
238.11880079997525,6.50078605200625e-05
246.44464295409233,6.500788349245943e-05
254.7704851082094,6.500790458404827e-05
263.0963272623265,6.500792374847224e-05
271.4221694164436,6.500794102605994e-05
279.74801157056066,6.500795666754215e-05
288.07385372467775,6.500797088440809e-05
296.39969587879483,6.500798384165223e-05
304.7255380329119,6.500799552188988e-05
313.051380187029,6.500800600331709e-05
321.3772223411461,6.500801540281457e-05
329.70306449526316,6.500802390100501e-05
338.02890664938025,6.500803155009072e-05
346.35474880349733,6.500803842796071e-05
354.6805909576144,6.500804452381599e-05
363.0064331117315,6.500804998292016e-05
371.3322752658486,6.50080548708099e-05
379.65811741996566,6.500805927702006e-05
387.98395957408275,6.500806316950924e-05
396.30980172819983,6.500806665248113e-05
404.6356438823169,6.50080697209715e-05
412.961486036434,6.500807249800231e-05
421.2873281905511,6.500807495189209e-05
429.61317034466816,6.500807715820747e-05
437.93901249878525,6.500807907132171e-05
446.26485465290233,6.50080808188749e-05
454.5906968070194,6.500808233654341e-05
462.9165389611365,6.500808372921545e-05
471.2423811152536,6.500808492034414e-05
479.56822326937066,6.500808602131634e-05
487.89406542348775,6.500808694645638e-05
496.21990757760483,6.500808783208584e-05
504.5457497317219,6.500808855851376e-05
512.871591885839,6.500808926044631e-05
521.1974340399562,6.500808982061534e-05
529.5232761940733,6.500809038765816e-05
537.8491183481905,6.500809081578204e-05
546.1749605023076,6.500809127827549e-05
554.5008026564248,6.500809160353327e-05
562.8266448105419,6.500809197696818e-05
571.152486964659,6.500809221907435e-05
579.4783291187762,6.500809253344533e-05
587.8041712728933,6.500809270409932e-05
596.1300134270105,6.500809296984292e-05
604.4558555811276,6.500809308741001e-05
612.7816977352447,6.50080933141153e-05
621.1075398893619,6.50080933857539e-05
629.433382043479,6.500809359072864e-05
637.7592241975962,6.500809361985431e-05
646.0850663517133,6.500809380672382e-05
654.4109085058304,6.50080938059092e-05
662.7367506599476,6.500809398008444e-05
671.0625928140647,6.500809429245309e-05
679.3884349681819,6.500809464612985e-05
687.714277122299,6.500809471380169e-05
696.0401192764161,6.500809475748156e-05
700.0,6.500809474317442e-05
700.0,6.500809474317442e-05
700.0000524463628,6.500809474317426e-05
700.0001366094444,6.5008094743174e-05
700.0003184828217,6.500809474317346e-05
700.000500356199,6.500809474317291e-05
700.0008693520949,6.50080947431718e-05
700.0012383479908,6.500809474317068e-05
700.0021510373052,6.500809474316763e-05
700.0030637266196,6.500809474316405e-05
700.0039764159341,6.500809474315927e-05
700.0048891052485,6.500809474315246e-05
700.0063196457286,6.50080947431353e-05
700.0077501862087,6.50080947431074e-05
700.0091807266888,6.500809474306541e-05
700.0115699063784,6.500809474295331e-05
700.0139590860681,6.500809474278167e-05
700.0177114466896,6.500809474237121e-05
700.0214638073112,6.500809474177836e-05
700.0279349425734,6.500809474031222e-05
700.0344060778357,6.500809473826157e-05
700.0408772130979,6.500809473566908e-05
700.0473483483602,6.500809473256564e-05
700.0538194836224,6.500809472899961e-05
700.0643284086555,6.500809472238719e-05
700.0748373336885,6.500809471498131e-05
700.0853462587215,6.500809470703735e-05
700.1014688628297,6.500809469437948e-05
700.1175914669379,6.500809468191378e-05
700.1337140710461,6.500809467047812e-05
700.1633445688138,6.50080946548217e-05
700.1929750665815,6.500809465019657e-05
700.2226055643492,6.500809466120773e-05
700.2522360621169,6.500809469242079e-05
700.2818665598846,6.50080947483424e-05
700.3114970576523,6.500809483349628e-05
700.3592844427144,6.500809504420487e-05
700.4070718277765,6.500809536290998e-05
700.4548592128385,6.500809581026476e-05
700.5026465979006,6.500809640800826e-05
700.5504339829627,6.500809717932731e-05
700.6299158409985,6.500809891484407e-05
700.7510263701682,6.500810290656228e-05
700.872136899338,6.50081090005658e-05
700.9932474285077,6.500811784144576e-05
701.1143579576775,6.500813024810508e-05
701.2354684868473,6.500814727334712e-05
701.356579016017,6.500817027071967e-05
701.4776895451868,6.500820098576052e-05
701.6779284999285,6.500827523282831e-05
701.8781674546702,6.500839251519916e-05
701.9282271933557,6.500843096813726e-05
701.9782869320412,6.500847406135357e-05
702.0283466707267,6.500852238757558e-05
702.0784064094122,6.500857663749349e-05
702.0909213440835,6.500859121709398e-05
702.1034362787549,6.50086062324247e-05
702.1226105777237,6.500863011896797e-05
702.1301384091192,6.500863979960652e-05
702.1376662405148,6.500864965685594e-05
702.150420420834,6.5008666772547e-05
702.1631746011533,6.500868442875777e-05
702.1759287814725,6.500870264926051e-05
702.1886829617918,6.500872146052126e-05
702.1969970567347,6.50087340552632e-05
702.2053111516777,6.50087469232752e-05
702.2136252466207,6.500876007526282e-05
702.2219393415637,6.500877352342709e-05
702.2302534365067,6.50087872821725e-05
702.2358638119738,6.500879675061287e-05
702.2414741874409,6.50088063743208e-05
702.247084562908,6.500881616024664e-05
702.252694938375,6.500882611620924e-05
702.2583053138421,6.500883625096722e-05
702.2639156893092,6.500884657428334e-05
702.2695260647763,6.500885709696595e-05
702.2751364402434,6.500886783089529e-05
702.2836607905731,6.500888457373147e-05
702.2921851409028,6.500890188507552e-05
702.3007094912325,6.500891982184768e-05
702.3092338415622,6.500893844776581e-05
702.3177581918919,6.500895783378958e-05
702.3307341348075,6.500898898278237e-05
702.343710077723,6.500902239291422e-05
702.3566860206386,6.50090584286811e-05
702.3696619635541,6.500909751021549e-05
702.3826379064697,6.500914012014486e-05
702.3956138493852,6.500918681133544e-05
702.4085897923007,6.500923821596196e-05
702.4215657352163,6.500929505606481e-05
702.4345416781318,6.500935815609094e-05
702.4475176210474,6.500942845786339e-05
702.4604935639629,6.500950703898599e-05
702.4734695068785,6.500959513557407e-05
702.493047771955,6.500974940714837e-05
702.5126260370316,6.500993466540776e-05
702.5322043021082,6.501015836934283e-05
702.5517825671848,6.501043030629739e-05
702.5713608322613,6.501076366293458e-05
702.5909390973379,6.50111778771164e-05
702.6105173624145,6.501169989096691e-05
702.6300956274911,6.501237419211396e-05
702.6496738925676,6.501328192953112e-05
702.658840959884,6.501382592857271e-05
702.6680080272002,6.501447948318631e-05
702.6771750945165,6.501527487267941e-05
702.6863421618328,6.501625231986866e-05
702.6955092291491,6.501745826965571e-05
702.7046762964654,6.501894180058661e-05
702.7138433637817,6.502075140758424e-05
702.723010431098,6.502293326932097e-05
702.7321774984143,6.502553054409091e-05
702.7413445657306,6.50285830718038e-05
702.7505116330469,6.503212744665274e-05
702.7596787003632,6.503619752794737e-05
702.7688457676795,6.504082521465388e-05
702.7780128349958,6.504604121125889e-05
702.7871799023121,6.505187561666544e-05
702.7963469696284,6.505835830741233e-05
702.8055140369447,6.506551916166983e-05
702.8198875115767,6.507818417240155e-05
702.8342609862086,6.509270702750523e-05
702.8486344608406,6.510920504966948e-05
702.8630079354725,6.512779799191344e-05
702.8773814101045,6.514860604956433e-05
702.8917548847364,6.517174998558876e-05
702.9061283593684,6.519735041564076e-05
702.9205018340003,6.5225527145358e-05
702.9348753086323,6.525639867127884e-05
702.9492487832642,6.529008158454708e-05
702.9636222578962,6.532668989367279e-05
702.9779957325281,6.5366334652956e-05
702.9923692071601,6.54091237795272e-05
703.006742681792,6.545516182850413e-05
703.021116156424,6.550454984106762e-05
703.035489631056,6.555738526663166e-05
703.0498631056879,6.561376188352503e-05
703.0642365803199,6.56737698192567e-05
703.0786100549518,6.573749569956428e-05
703.0929835295838,6.580502284434545e-05
703.1073570042157,6.587643149446427e-05
703.1217304788477,6.595179906355272e-05
703.1361039534796,6.603120037206356e-05
703.1504774281116,6.611470784691071e-05
703.1648509027435,6.620239169206557e-05
703.1792243773755,6.629432002647282e-05
703.1935978520074,6.639055898354835e-05
703.2079713266394,6.649117276930778e-05
703.2223448012713,6.659622367636397e-05
703.2367182759033,6.670577205709482e-05
703.2510917505352,6.681987626812559e-05
703.2654652251672,6.693859260118254e-05
703.2798386997991,6.706197521382528e-05
703.2942121744311,6.719007607194972e-05
703.308585649063,6.732294491362321e-05
703.322959123695,6.74606292388831e-05
703.337332598327,6.760317432352165e-05
703.3517060729589,6.775062324935925e-05
703.3660795475909,6.790301694138469e-05
703.3804530222228,6.806039420369881e-05
703.3948264968548,6.822279174953273e-05
703.4091999714867,6.839024422327599e-05
703.4235734461187,6.856278421341949e-05
703.4379469207506,6.874044225519654e-05
703.4523203953826,6.892324682136352e-05
703.4666938700145,6.911122429913155e-05
703.4810673446465,6.930439895041658e-05
703.4954408192784,6.950279285128723e-05
703.5098142939104,6.970642580520528e-05
703.5241877685423,6.991531522387331e-05
703.5385612431743,7.012947596938354e-05
703.5529347178062,7.034892015176762e-05
703.5673081924382,7.057365687685405e-05
703.5816816670701,7.080369194064555e-05
703.5960551417021,7.103902746850683e-05
703.6185270827226,7.14175735761956e-05
703.6409990237431,7.180903897367902e-05
703.6634709647636,7.221336159889843e-05
703.6859429057841,7.263044260491484e-05
703.7084148468047,7.306014216256896e-05
703.7308867878252,7.350227740045916e-05
703.7533587288457,7.395662251395534e-05
703.7758306698662,7.44229110505334e-05
703.7983026108867,7.490084089801674e-05
703.8207745519072,7.53900821180828e-05
703.8432464929277,7.589028623118313e-05
703.8657184339482,7.64010949573021e-05
703.8881903749688,7.692214724789402e-05
703.9106623159893,7.745308640580049e-05
703.9331342570098,7.799356369170164e-05
703.9556061980303,7.854324023306193e-05
703.9780781390508,7.910178696689292e-05
704.0,7.965490255088305e-05
704.0,7.965490255088305e-05
704.0000005350304,7.965491614730368e-05
704.0000439755108,7.965602010611835e-05
704.0001237953627,7.965804868284315e-05
704.0002962822338,7.966243282547934e-05
704.0005634704081,7.966922518020747e-05
704.0008306585825,7.967601870017256e-05
704.0013080933406,7.968816042673745e-05
704.0017855280988,7.97003054709251e-05
704.0029008142886,7.972869083352196e-05
704.0040161004785,7.975709663121852e-05
704.0051313866683,7.978552345566615e-05
704.0062466728581,7.981397181498206e-05
704.0079397393748,7.985720042036604e-05
704.0096328058916,7.990048131751412e-05
704.0113258724083,7.9943815743172e-05
704.0141586631838,8.001644511510405e-05
704.0169914539593,8.008923038556573e-05
704.0215227911269,8.020598662257584e-05
704.0260541282945,8.032314536022768e-05
704.0336798999554,8.052120710899118e-05
704.0413056716162,8.072038039531511e-05
704.0489314432771,8.092062501794363e-05
704.0565572149379,8.112191028314003e-05
704.0641829865988,8.132420106666719e-05
704.0763229163729,8.164822339303454e-05
704.088462846147,8.197456099277835e-05
704.1006027759211,8.230308503879937e-05
704.119005590225,8.28050011746533e-05
704.137408404529,8.331129549029612e-05
704.1558112188329,8.38216229765694e-05
704.1742140331369,8.433566977994074e-05
704.1926168474408,8.4853148488917e-05
704.2110196617448,8.537379251977966e-05
704.2294224760487,8.589735176008246e-05
704.2478252903527,8.642359038336318e-05
704.2662281046566,8.695228606928507e-05
704.2846309189606,8.748322943705853e-05
704.3127263637589,8.829770760473406e-05
704.3408218085572,8.911631124738859e-05
704.3689172533554,8.993843974074931e-05
704.3970126981537,9.076353624942403e-05
704.425108142952,9.159108613980889e-05
704.4532035877503,9.242061194060141e-05
704.4812990325486,9.325167037829974e-05
704.5093944773469,9.408384950233191e-05
704.5374899221451,9.491676607295218e-05
704.5655853669434,9.575006305473053e-05
704.5936808117417,9.658340735181739e-05
704.62177625654,9.741648781245061e-05
704.6498717013383,9.824901346957081e-05
704.6923969761159,9.95074763832947e-05
704.7349222508935,0.00010076318846325252
704.7774475256712,0.00010201535116087968
704.8199728004488,0.00010326323980128167
704.8624980752264,0.00010450619748013021
704.9050233500041,0.00010574362747269698
704.9475486247817,0.00010697498631555177
704.9900738995593,0.00010819977816843308
705.058690534621,0.00011016107538224781
705.1273071696826,0.00011210241545157332
705.1959238047442,0.00011402232670907294
705.2645404398058,0.00011591955656279504
705.3331570748675,0.00011779303914338917
705.4017737099291,0.00011964187508440646
705.4480162749935,0.00012087356844108655
705.4942588400579,0.00012209352491176283
705.5405014051223,0.0001233015755216939
705.5867439701867,0.00012449757878123645
705.6329865352511,0.00012568141870587386
705.6792291003155,0.00012685300268704157
705.7254716653799,0.00012801225945958857
705.7717142304443,0.0001291591370359654
705.8179567955087,0.0001302936006030544
705.8641993605731,0.00013141563043575825
705.9104419256375,0.00013252522016017856
705.956684490702,0.0001336223752020997
706.0029270557663,0.00013470711144282702
706.0491696208308,0.00013577945439925487
706.0954121858952,0.00013683943881177265
706.1416547509596,0.00013788710822959434
706.187897316024,0.00013892251441497037
706.2341398810884,0.00013994571663557406
706.2803824461528,0.00014095678092649258
706.3266250112172,0.00014195577933610355
706.3728675762816,0.00014294278916407194
706.419110141346,0.00014391789223701065
706.4653527064104,0.00014488117427333364
706.5115952714748,0.00014583272434515749
706.5578378365392,0.00014677263440022404
706.6040804016036,0.00014770099880335178
706.650322966668,0.00014861791388495277
706.6965655317324,0.00014952347750863258
706.7428080967968,0.00015041778867528287
706.7890506618612,0.0001513009471762667
706.8352932269256,0.00015217305330394732
706.88153579199,0.0001530342076243925
706.9277783570544,0.00015388451081157378
706.9995383356802,0.0001551827762859276
707.071298314306,0.000156455528992115
707.1430582929318,0.0001577031440936976
707.2148182715575,0.00015892599614760944
707.2865782501833,0.0001601244591222673
707.3583382288091,0.00016129890640171024
707.4300982074349,0.00016244971086253317
707.5018581860606,0.000163577244943184
707.5736181646864,0.0001646818805700623
707.6453781433122,0.00016576398888555916
707.717138121938,0.00016682393985251984
707.7888981005638,0.0001678621018710633
707.8606580791895,0.00016887884146832497
707.9324180578153,0.0001698745229984878
708.0041780364411,0.00017084950827161877
708.0759380150669,0.00017180415613486625
708.1476979936926,0.00017273882210800507
708.2194579723184,0.00017365385810529937
708.2912179509442,0.0001745496121565457
708.36297792957,0.00017542642805954415
708.4347379081958,0.0001762846450287845
708.5569798979043,0.00017770472498634572
708.6792218876128,0.0001790734212376569
708.8014638773213,0.00018039230958914415
708.9237058670299,0.00018166292203650032
709.0459478567384,0.0001828867467813922
709.2362721176083,0.0001847024399743591
709.4265963784783,0.00018641345032288442
709.6169206393482,0.00018802477832862853
709.8072449002182,0.00018954119014604945
709.9975691610881,0.0001909672271714638
710.187893421958,0.00019230721520847532
710.378217682828,0.00019356527383618477
710.5685419436979,0.00019474532593696814
710.9089249211346,0.00019667292996770736
711.2493078985713,0.00019838285929676494
711.5896908760079,0.00019989338666764975
711.9300738534446,0.00020122125512299667
712.2704568308812,0.0002023818074950267
712.6108398083179,0.00020338910462075276
712.9512227857546,0.00020425603005904864
713.2916057631912,0.0002049943894775479
713.6319887406279,0.00020561500341298818
714.1472595123721,0.00020635237422619867
714.6625302841163,0.00020687341258510258
715.1778010558605,0.00020720517876320697
715.6930718276047,0.00020737142846609396
716.208342599349,0.0002073930411174328
716.7236133710932,0.00020728835415675852
717.2388841428374,0.00020707346623192698
717.7541549145816,0.00020676250821226297
718.2694256863258,0.00020636789183501282
718.78469645807,0.00020590051799857837
719.2999672298142,0.00020536997034303672
719.8152380015584,0.00020478466566833652
720.3305087733027,0.00020415200788181644
720.8457795450469,0.00020347849603633293
721.3610503167911,0.00020276984665581574
721.8763210885353,0.00020203108320779577
722.3915918602795,0.00020126661967385937
722.9068626320237,0.00020048032852913863
723.4221334037679,0.00019967561608099697
723.9374041755121,0.00019885546711346
724.4526749472564,0.00019802250627239305
724.9679457190006,0.00019717903825086934
725.4832164907448,0.00019632708259691677
725.998487262489,0.0001954684117826043
726.7983627315718,0.00019412562841414943
727.5982382006547,0.0001927751858546706
728.3981136697375,0.0001914211895750461
729.1979891388204,0.00019006695194599755
729.9978646079032,0.00018871513876541867
731.2090345167303,0.00018667726501680885
732.4202044255574,0.00018465543372065833
733.6313743343844,0.0001826539817764348
734.8425442432115,0.00018067594346146945
736.0537141520385,0.00017872342558811777
737.2648840608656,0.00017679787732647814
738.4760539696927,0.00017490027213400502
740.3481952596011,0.00017202323308185957
742.2203365495095,0.00016921543651704868
744.0924778394179,0.00016647717165463872
745.9646191293264,0.00016380798812377082
747.8367604192348,0.0001612069818446946
