time,voltage
0.0,-80.0
0.0002989975869300662,-80.00256753782374
0.001292520350433077,-80.00947013682531
0.00373956773731411,-80.02184203488983
0.00782800737056425,-80.0369240452572
0.014054817191565417,-80.05422402650974
0.020281627012566583,-80.0684086141735
0.031425893703160124,-80.08975200992558
0.049177464819111866,-80.11682393027056
0.08259600688229396,-80.15573336703521
0.11601454894547605,-80.18513331042999
0.14943309100865815,-80.20968032174075
0.18285163307184024,-80.23129221189494
0.23935883087545956,-80.26362877365413
0.29586602867907885,-80.29169495707664
0.35237322648269814,-80.31663001811519
0.45046472742664545,-80.35496651204495
0.5485562283705927,-80.38838656481191
0.7064046593572801,-80.43519460051604
0.8642530903439676,-80.47620301585614
1.147977713010992,-80.54106418668297
1.4317023356780165,-80.59995965562238
1.715426958345041,-80.65550387641959
1.9991515810120655,-80.70839566430334
2.28287620367909,-80.75896700798954
2.7830901475335654,-80.84345222509283
3.541971550803616,-80.96258535202949
4.300852954073666,-81.07315598712707
5.059734357343717,-81.17639640388118
5.818615760613768,-81.27289705634261
6.577497163883819,-81.36313145859164
7.814869873803878,-81.49794503148135
9.052242583723936,-81.61893290765991
10.289615293643996,-81.72747371644675
12.227882923802985,-81.87516366995612
14.166150553961975,-81.99898302018252
16.104418184120963,-82.10234319816868
19.3418223716282,-82.23739458318295
22.57922655913544,-82.33536729204145
25.816630746642677,-82.40558925753159
29.054034934149914,-82.45540238159613
32.291439121657156,-82.49050139451941
35.528843309164394,-82.51524191987
40.50631618639082,-82.54049727519148
45.483789063617245,-82.55733925840845
50.46126194084367,-82.57079348829103
55.438734818070095,-82.58381106500114
63.825194978169115,-82.60847571550565
72.21165513826813,-82.6381597580337
80.59811529836715,-82.67263231185939
88.98457545846617,-82.70980343193439
97.37103561856519,-82.74674561211822
105.75749577866421,-82.7808952159682
114.14395593876323,-82.81088422176673
122.53041609886225,-82.83643381651399
130.91687625896125,-82.85744966079184
139.30333641906026,-82.87383705424368
147.68979657915926,-82.88582638776093
156.07625673925827,-82.89405662694169
164.46271689935728,-82.8992698374205
172.84917705945628,-82.90213422481621
181.2356372195553,-82.90311912864131
189.6220973796543,-82.90264469922344
198.0085575397533,-82.90115728179755
206.3950176998523,-82.89908815911953
214.7814778599513,-82.89670280694034
223.16793802005031,-82.89418787194384
231.55439818014932,-82.89164190707986
239.94085834024833,-82.88918983762403
248.32731850034733,-82.88693639426705
256.71377866044634,-82.88492646552331
265.10023882054537,-82.88311261662615
273.4866989806444,-82.88149238223097
281.87315914074344,-82.8800642147576
290.2596193008425,-82.87886080969166
298.6460794609415,-82.87784753104793
307.03253962104054,-82.87699512500723
315.4189997811396,-82.87625760095149
323.8054599412386,-82.87565696756388
332.19192010133764,-82.87516204494376
340.5783802614367,-82.87477359259627
348.9648404215357,-82.8744421521518
357.35130058163475,-82.87417829388932
365.7377607417338,-82.87395173916894
374.1242209018328,-82.87379107586464
382.51068106193185,-82.87364936807752
390.8971412220309,-82.87354915348364
399.2836013821299,-82.87345027485186
407.67006154222895,-82.87338983349375
416.056521702328,-82.87332486501842
424.442981862427,-82.87329643042375
432.82944202252605,-82.87325039762578
441.2159021826251,-82.87323554763164
449.6023623427241,-82.87320029904065
457.98882250282315,-82.87320001801494
466.3752826629222,-82.8731718538046
474.7617428230212,-82.87317994310976
483.14820298312026,-82.87315365484145
491.5346631432193,-82.87316665437577
499.9211233033183,-82.87314214852225
508.30758346341736,-82.87316155123109
516.6940436235163,-82.87313514217556
525.0805037836153,-82.87315833066593
533.4669639437143,-82.87317499453859
541.8534241038133,-82.87321625993334
550.2398842639122,-82.87317803495034
558.6263444240112,-82.87317418425985
567.0128045841102,-82.87314683939671
575.3992647442092,-82.873173825191
583.7857249043082,-82.87315270144438
592.1721850644071,-82.87317759438865
600.5586452245061,-82.87314376542477
608.9451053846051,-82.87317158223215
617.3315655447041,-82.87313983849262
625.718025704803,-82.87317265486163
634.104485864902,-82.87313494309315
642.490946025001,-82.87317150931368
650.8774061851,-82.87312725146933
659.263866345199,-82.87316920659201
667.6503265052979,-82.87312136960499
676.0367866653969,-82.87316904371394
684.4232468254959,-82.87311413534863
692.8097069855949,-82.87316746640113
700.0,-82.87315813225528
700.0,-82.87315813225528
700.0000919951464,-82.86424452983903
700.0002758422919,-82.84748571761098
700.0007130010982,-82.81177116952274
700.0011501599046,-82.77932289929954
700.0019407053846,-82.72624042496139
700.0032305070034,-82.65190262210542
700.0055888710204,-82.54101498436331
700.0079472350375,-82.45162309512834
700.0103055990545,-82.37468038012582
700.0126639630715,-82.30562476665033
700.0166828993001,-82.19954935052746
700.0207018355287,-82.10542056597981
700.0247207717573,-82.02031475012171
700.031689047322,-81.88854866805434
700.0386573228866,-81.77193558570241
700.0519613365011,-81.57843236291441
700.0652653501156,-81.40947673212604
700.0785693637301,-81.25672132034889
700.0918733773447,-81.11650950496599
700.1051773909592,-80.98657628205336
700.1280247012193,-80.78266637760265
700.1508720114794,-80.59720545388947
700.1737193217394,-80.42572413975539
700.2094699748578,-80.17952001368931
700.2452206279762,-79.95452854945883
700.2999683593512,-79.64131566030674
700.3877048615001,-79.19559747031805
700.475441363649,-78.801123774307
700.5631778657979,-78.44589882974725
700.6509143679468,-78.11849652393614
700.7386508700957,-77.8103297904845
700.8263873722447,-77.51697609749723
700.9141238743936,-77.23608938323912
701.0485218262189,-76.82484837662612
701.1829197780443,-76.43167121320995
701.3173177298696,-76.05253492561991
701.451715681695,-75.68441698351822
701.6632090605663,-75.12241643556322
701.8747024394376,-74.57724159802109
702.0861958183089,-74.04594587955924
702.2976891971801,-73.52650183728099
702.5091825760514,-73.01734602596107
702.8959936081053,-72.10909921893546
703.5046077223606,-70.73077345184224
704.1132218366158,-69.40625507834815
704.7218359508711,-68.12990821096754
705.3304500651263,-66.8936066344501
705.9390641793816,-65.68851114270443
706.5476782936369,-64.5070511497666
707.1562924078921,-63.34887185644295
707.7649065221474,-62.193379934375706
707.9170600507111,-61.90457193770116
708.0692135792749,-61.61792024659963
708.2213671078387,-61.32753256435678
708.3735206364024,-61.033027555844825
708.5256741649662,-60.73919727269186
708.6778276935299,-60.44084013412237
708.782068329203,-60.233425680494854
708.886308964876,-60.027835097832245
708.990549600549,-59.81991204478619
709.094790236222,-59.60577869924112
709.199030871895,-59.38819468628449
709.3032715075681,-59.170507751340516
709.4075121432411,-58.947696103513
709.5117527789141,-58.71486303470047
709.6159934145871,-58.47513051516315
709.7202340502602,-58.23096547184407
709.8244746859332,-57.973371883220906
709.9287153216062,-57.69100219513325
710.0329559572792,-57.38321649289427
710.0590161161974,-57.302449845625844
710.0850762751156,-57.21854985805219
710.1111364340338,-57.13042120902471
710.152265091521,-56.98218085947302
710.1933937490082,-56.82145293425949
710.2345224064954,-56.64404466343558
710.2756510639827,-56.44224992061779
710.3167797214699,-56.204101035040054
710.3418830548153,-56.03253280941277
710.3669863881607,-55.83070893056291
710.3920897215062,-55.58378883214829
710.4074310612241,-55.40134096302506
710.422772400942,-55.18425267694846
710.4381137406599,-54.918471737819736
710.4534550803778,-54.582746502853674
710.4687964200957,-54.14689032295399
710.4778396520879,-53.827768994255614
710.4868828840802,-53.450922938583986
710.4959261160724,-53.00973263862283
710.5049693480646,-52.50281041416658
710.5140125800568,-51.935313933087556
710.523055812049,-51.31948682898168
710.5285342881045,-50.9299902822917
710.53401276416,-50.53350510521288
710.5394912402155,-50.13331453051163
710.544969716271,-49.731784297077546
710.5504481923265,-49.33082815179977
710.5593203307305,-48.68655040198905
710.5681924691346,-48.0527267989646
710.5770646075387,-47.43281871897654
710.5859367459427,-46.828783758234785
710.5948088843468,-46.24177293025375
710.6036810227508,-45.67242420981258
710.6125531611549,-45.12127101565979
710.621425299559,-44.58857584818661
710.630297437963,-44.07437014752679
710.6444704772823,-43.290552585567404
710.6586435166016,-42.55166517222868
710.6728165559209,-41.85564325798977
710.6869895952402,-41.19971745314039
710.7011626345595,-40.58109622230479
710.7153356738788,-39.996763572970586
710.7295087131981,-39.44362182139006
710.7436817525174,-38.91839019914185
710.7578547918367,-38.41792939411712
710.7830390639285,-37.5798556422327
710.8082233360203,-36.793494495719436
710.8334076081121,-36.041870489806186
710.8585918802039,-35.308971559863735
710.8837761522957,-34.577255108146
710.9089604243875,-33.82978800197054
710.9341446964793,-33.04486822244157
710.9593289685711,-32.19972171175065
710.9845132406629,-31.262573653020148
711.0096975127547,-30.196548780119883
711.0348817848464,-28.945626306250883
711.0600660569382,-27.437416712698056
711.08525032903,-25.55612980983121
711.1104346011218,-23.14123275154232
711.1356188732136,-19.91653976321714
711.1608031453054,-15.532517158413762
711.1859874173972,-9.597693921932702
711.1995535355077,-5.715012023387321
711.2131196536182,-1.4145201659028448
711.2266857717286,3.0437734374332566
711.2402518898391,7.38656279173816
711.2538180079496,11.275699349929745
711.26738412606,14.480847255577673
711.2809502441705,16.91855380573396
711.294516362281,18.63487608767778
711.3080824803915,19.727942248385286
711.321648598502,20.307261733749
711.3352147166124,20.478018441117353
711.3487808347229,20.331959280757854
711.3623469528334,19.94416281970023
711.3759130709439,19.3742428525613
711.3894791890543,18.668514001650177
711.4030453071648,17.862384056578517
711.4166114252753,16.982852955829493
711.4301775433858,16.050588444528
711.4437436614962,15.081489250841013
711.4573097796067,14.08787565395067
711.4708758977172,13.078773823169508
711.4844420158277,12.063039894894994
711.4980081339381,11.045980923341098
711.5115742520486,10.031873820016049
711.5251403701591,9.024530631782088
711.5387064882696,8.026726639994786
711.560674520544,6.436062248571589
711.5826425528185,4.881659370203116
711.6046105850929,3.3669338808035683
711.6265786173674,1.8932766493772855
711.6485466496418,0.4593725496498464
711.6705146819163,-0.9362370625726096
711.6924827141908,-2.295857655600965
711.7144507464652,-3.622652238387322
711.7364187787397,-4.920059096743287
711.7583868110141,-6.191650882273998
711.7803548432886,-7.441065149289694
711.802322875563,-8.671973819719186
711.8242909078375,-9.888057527312448
711.846258940112,-11.09298860829605
711.8682269723864,-12.290419435839032
711.8901950046609,-13.4839688107043
711.9121630369353,-14.677197055027
711.9341310692098,-15.873561320010133
711.9560991014843,-17.076346349227414
711.9780671337587,-18.288565171303677
712.0000351660332,-19.51276594025837
712.0220031983076,-20.751074151732414
712.0439712305821,-22.00472094409245
712.0659392628565,-23.273885373259077
712.087907295131,-24.557415512177432
712.1098753274055,-25.85262512445133
712.1318433596799,-27.155028594577704
712.1538113919544,-28.45826463288226
712.1757794242288,-29.754154549410483
712.1977474565033,-31.033030668341798
712.2197154887778,-32.28426668371474
712.2416835210522,-33.49702179430528
712.2636515533267,-34.6610648486283
712.2856195856011,-35.76757153388481
712.3075876178756,-36.809745091327066
712.32955565015,-37.78317839711812
712.3515236824245,-38.68592198024789
712.373491714699,-39.5182940583884
712.3954597469734,-40.28250561861266
712.4174277792479,-40.98219026862706
712.4393958115223,-41.622051762716445
712.4613638437968,-42.206914104976796
712.4833318760712,-42.742096295037285
712.5052999083457,-43.23276684019749
712.5272679406202,-43.68376840813968
712.5492359728946,-44.099531853048184
712.5712040051691,-44.48405059595679
712.5931720374435,-44.840874571353275
712.615140069718,-45.17312904004613
712.6371081019925,-45.483547957689865
712.6590761342669,-45.77451432923808
712.6810441665414,-46.04810200460623
712.7030121988158,-46.306115192086686
712.7249802310903,-46.550125614925435
712.7469482633647,-46.78150579661448
712.7689162956392,-47.00145709626785
712.7908843279137,-47.2110333346673
712.8128523601881,-47.41116113749597
712.8348203924626,-47.60265735029763
712.856788424737,-47.7862436797602
712.8787564570115,-47.962557285549
712.900724489286,-48.13216815936386
712.9226925215604,-48.295578739307125
712.9446605538349,-48.45323672454205
712.9666285861093,-48.60554170113839
712.9885966183838,-48.752851062886876
713.0229697067708,-48.974054422608134
713.0573427951579,-49.18487203773935
713.0917158835449,-49.38623983717165
713.126088971932,-49.57894203656593
713.160462060319,-49.76365255646981
713.194835148706,-49.940956203113174
713.2292082370931,-50.111362890281626
713.2635813254801,-50.275319102474654
713.2979544138672,-50.433217533551556
713.3533790554523,-50.675918690233175
713.4088036970373,-50.90501067651495
713.4642283386224,-51.121532403965524
713.5500760070001,-51.43402335479972
713.6359236753779,-51.72082502792711
713.7217713437556,-51.98372206411404
713.8076190121333,-52.22407803117799
713.893466680511,-52.44292838755257
713.9793143488887,-52.64113524761609
714.0296887854114,-52.74816128683306
714.0800632219341,-52.84857047711008
714.1304376584568,-52.94258885778454
714.1808120949795,-53.030461485316636
714.2311865315022,-53.11244567030621
714.2815609680249,-53.18880036460127
714.3319354045476,-53.25978092109205
714.3823098410703,-53.325635627469296
714.432684277593,-53.38660299377974
714.4830587141157,-53.442907967880494
714.5334331506384,-53.494762328686924
714.5838075871611,-53.542369325913704
714.6341820236838,-53.585931026950036
714.6845564602065,-53.625652963195215
714.7349308967292,-53.66174468588094
714.7853053332519,-53.694416491784054
714.8356797697746,-53.72387520292836
714.8860542062973,-53.75032021843415
714.93642864282,-53.77394091302161
714.9868030793427,-53.794915161937354
715.0371775158654,-53.813409125270624
715.0875519523881,-53.82957764116142
715.1643318703879,-53.850071026497595
715.2411117883876,-53.86595826804962
715.3178917063873,-53.87764628481846
715.394671624387,-53.88548472639995
715.4714515423867,-53.8897664241336
715.5482314603864,-53.89073056909612
715.6250113783861,-53.88857016079305
715.7017912963859,-53.883441452925744
715.7785712143856,-53.87547334615458
715.8553511323853,-53.86477503255462
715.932131050385,-53.85144283110243
716.0089109683847,-53.83556606862934
716.0856908863844,-53.81723210726687
716.1624708043842,-53.796529161817354
716.2392507223839,-53.77354782129807
716.3160306403836,-53.74837965287696
716.4391270451822,-53.7037040507342
716.5622234499808,-53.65405232793108
716.6853198547794,-53.59983654696936
716.808416259578,-53.54147025879448
716.9315126643767,-53.47935450174972
717.0546090691753,-53.41387043072206
717.1777054739739,-53.34538802226997
717.3008018787725,-53.27423657546873
717.4238982835711,-53.200716009198885
717.6102927850026,-53.08538629189199
717.796687286434,-52.965897347978164
717.9830817878654,-52.84277141925469
718.1694762892969,-52.716521491735584
718.3558707907283,-52.58720805381364
718.5422652921598,-52.45547957074802
718.7286597935912,-52.32060537850266
718.9150542950226,-52.18455093694963
719.1014487964541,-52.04340173531582
719.2878432978855,-51.90009754775387
719.4742377993169,-51.75824297719219
719.6606323007484,-51.610886375601595
719.8470268021798,-51.4586382117166
720.0334213036112,-51.306507781030334
720.2198158050427,-51.15773632903055
720.4062103064741,-50.99762107022046
720.5327129362412,-50.88428327766046
720.6592155660082,-50.775812919002135
720.7857181957753,-50.664256483978654
720.9122208255424,-50.54547346050192
721.0387234553094,-50.42572184292809
721.1652260850765,-50.30735637036325
721.2917287148435,-50.19059077835766
721.4182313446106,-50.06591672500305
721.5447339743777,-49.930650479689284
721.6712366041447,-49.79631002541275
721.7977392339118,-49.66531233208741
721.9242418636788,-49.52318303070062
722.010644273832,-49.41590370571898
722.0970466839851,-49.308466348733425
722.1834490941383,-49.20156885152584
722.2698515042914,-49.095691904696764
722.3562539144446,-48.98032645131105
722.4121121846459,-48.89837828976995
722.4679704548473,-48.816697467391805
722.5238287250487,-48.73359113796103
722.5796869952501,-48.646829005715375
722.6355452654515,-48.55697766888384
722.6914035356529,-48.465969887080476
722.7472618058542,-48.3712957926541
722.8031200760556,-48.27249408586415
722.858978346257,-48.16665467401874
722.9148366164584,-48.04974574732364
722.9706948866598,-47.92457413992015
723.0265531568612,-47.79121463564687
723.0824114270625,-47.642622469833555
723.1382696972639,-47.47075849753794
723.1941279674653,-47.272858313121525
723.2499862376667,-47.0399659294079
723.3058445078681,-46.74370918143771
723.3617027780695,-46.3286041494854
723.3914416725593,-46.02191030728135
723.4211805670491,-45.60380799143901
723.439725105481,-45.25148876834244
723.4582696439129,-44.78690695692095
723.4712147987899,-44.37194113906904
723.4841599536669,-43.86674546222783
723.4931612639265,-43.45910893604569
723.5021625741861,-43.00968042085134
723.5111638844456,-42.527818298189175
723.5201651947052,-42.02572242841592
723.5291665049648,-41.51552395546441
723.5381678152244,-41.00722406503063
723.547169125484,-40.50800743582764
723.5561704357435,-40.022820903385366
723.5651717460031,-39.55484392316682
723.5741730562627,-39.10576333041429
723.5831743665223,-38.676047318879135
723.5921756767818,-38.26553484618993
723.6061829499349,-37.663770052127134
723.620190223088,-37.10457667970503
723.6341974962411,-36.58404816453203
723.6482047693942,-36.09825723953542
723.6622120425473,-35.643125504343494
723.6762193157003,-35.214757181054914
723.6902265888534,-34.80903672109022
723.7042338620065,-34.4223348969285
723.7182411351596,-34.051163055614914
723.7322484083127,-33.69249927490358
723.7462556814658,-33.343244718310736
723.7739651885616,-32.66951830945271
723.8016746956575,-32.00222463161462
723.8293842027534,-31.321955763362233
723.8570937098493,-30.61177419681392
723.8848032169452,-29.85279654768054
723.9125127240411,-29.02501309445563
723.940222231137,-28.103075059850916
723.9679317382329,-27.057676363352297
724.0115375240849,-25.062385395388656
724.055143309937,-22.457775594970734
724.098749095789,-18.956515323745684
724.142354881641,-14.19332166118677
724.1697371655715,-10.517338811042016
724.197119449502,-6.4511320659146385
724.2245017334325,-2.361418432024666
724.251884017363,1.2528675721825022
724.270567003028,3.270144122400055
724.289249988693,4.8398676094715976
724.307932974358,5.940730363782244
724.326615960023,6.599022743012302
724.345298945688,6.871582973154417
724.363981931353,6.825648138659799
724.382664917018,6.524885966671296
724.401347902683,6.02431387205348
724.420030888348,5.3699481081979235
724.438713874013,4.599388209800565
724.4670700655137,3.2719449036953985
724.4954262570143,1.8206058705827532
724.5237824485149,0.3011788142098203
724.5521386400155,-1.2492312575178035
724.5804948315161,-2.808847113279797
724.6088510230168,-4.365390043332594
724.6372072145174,-5.911789514044174
724.665563406018,-7.443861812446875
724.6939195975186,-8.959695002478353
724.7222757890192,-10.45965228482477
724.7506319805199,-11.945748344036863
724.7789881720205,-13.42082143146824
724.8073443635211,-14.888119602317357
724.8357005550217,-16.350997413026246
724.8640567465224,-17.81272028876584
724.892412938023,-19.27600151506552
724.9207691295236,-20.7424779009927
724.9491253210242,-22.212512631027465
724.9774815125248,-23.684661475788648
725.0058377040255,-25.155576516950408
