time,voltage
0.0,-80.0
0.00029899758690935755,-80.0025675378232
0.001292520350298389,-80.00947013682273
0.0037395677368004393,-80.02184203488196
0.00782800736945297,-80.0369240452407
0.014054817189489945,-80.05422402648034
0.02028162700952692,-80.06840861413117
0.031425893698587615,-80.08975200986049
0.04917746481224494,-80.1168239301693
0.08259600687123345,-80.15573336686593
0.11601454893022195,-80.18513331019295
0.14943309098921045,-80.2096803214365
0.18285163304819896,-80.23129221152367
0.2393588308516763,-80.26362877317388
0.29586602865515366,-80.29169495648718
0.352373226458631,-80.31663001741555
0.4504647274012109,-80.35496651115398
0.5485562283437908,-80.38838656372953
0.7064046593153004,-80.4351945991225
0.86425309028681,-80.47620301415299
1.1479777129448219,-80.54106418443138
1.4317023356028338,-80.5999596528263
1.7154269582608457,-80.65550387308353
1.9991515809188576,-80.70839566043307
2.2828762035768695,-80.75896700358918
2.7830901473486973,-80.84345221975971
3.5419715504858575,-80.96258534531601
4.300852953623018,-81.07315597907495
5.0597343567601785,-81.17639639453223
5.818615759897339,-81.27289704573892
6.5774971630345,-81.36313144677666
7.814869872850346,-81.49794501779273
9.052242582666192,-81.61893289220146
10.289615292482038,-81.72747369931162
12.227882924035523,-81.87516365047432
14.166150555589008,-81.99898299849617
16.104418187142493,-82.10234317438677
19.341822307919838,-82.23739455359524
22.579226428697183,-82.33536725806013
25.816630549474528,-82.40558921990502
29.054034670251873,-82.45540234059058
32.29143879102922,-82.49050135010101
35.52884291180657,-82.51524187183965
40.50631536069162,-82.54049721979037
45.483787809576675,-82.55733919588705
50.46126025846173,-82.57079341859422
55.43873270734678,-82.58381098824628
63.82519385204811,-82.60847563334266
72.21165499674944,-82.6381596744799
80.59811614145077,-82.6726322311325
88.9845772861521,-82.70980335732554
97.37103843085343,-82.74674554509532
105.75749957555476,-82.78089515611093
114.14396072025609,-82.81088416766461
122.53042186495742,-82.83643376670494
130.91688300965876,-82.85744961390095
139.3033441543601,-82.87383700886089
147.68980529906145,-82.88582634257634
156.0762664437628,-82.89405658098877
164.46272758846413,-82.89926979013825
172.84918873316548,-82.90213417599453
181.23564987786682,-82.903119078225
189.62211102256816,-82.90264464724326
198.0085721672695,-82.9011572283858
206.39503331197085,-82.89908810453493
214.7814944566722,-82.89670275146788
223.16795560137354,-82.8941878158634
231.55441674607488,-82.89164185061324
239.94087789077622,-82.8891897809612
248.32733903547756,-82.88693633756341
256.7138001801789,-82.88492640892079
265.10026132488025,-82.88311256022956
273.4867224695816,-82.88149232611703
281.87318361428294,-82.88006415897233
290.2596447589843,-82.87886075425568
298.6461059036856,-82.87784747596203
307.03256704838697,-82.87699507027477
315.4190281930883,-82.8762575465492
323.80548933778965,-82.87565691347321
332.191950482491,-82.87516199112683
340.57841162719234,-82.87477353903103
348.9648727718937,-82.87444209880307
357.351333916595,-82.8741782407381
365.73779506129637,-82.87395168618072
374.1242562059977,-82.8737910230248
382.51071735069905,-82.87364931535241
390.8971784954004,-82.87354910087056
399.28363964010174,-82.87345022232567
407.6701007848031,-82.87338978104454
416.0565619295044,-82.87332481261939
424.44302307420577,-82.87329637807755
432.8294842189071,-82.873250345317
441.21594536360845,-82.8732354953707
449.6024065083098,-82.87320024680189
457.98886765301114,-82.87319996581004
466.3753287977125,-82.87317180161357
474.7617899424138,-82.87317989094849
483.14825108711517,-82.8731536026833
491.5347122318165,-82.87316660224232
499.92117337651786,-82.87314209639057
508.3076345212192,-82.87316149912512
516.6940956659205,-82.87313509006142
525.0805568106218,-82.87315827858009
533.4670179553232,-82.8731749424779
541.8534791000245,-82.87321620792015
550.2399402447259,-82.87317798292652
558.6264013894272,-82.87317413223663
567.0128625341285,-82.87314678735284
575.3993236788299,-82.87317377315465
583.7857848235312,-82.87315264938374
592.1722459682326,-82.87317754233874
600.5587071129339,-82.87314371335064
608.9451682576353,-82.87317153018147
617.3316294023366,-82.87313978641488
625.718090547038,-82.8731726027988
634.1045516917393,-82.87313489100701
642.4910128364406,-82.87317145726385
650.877473981142,-82.8731271994005
659.2639351258433,-82.87316915455686
667.6503962705447,-82.8731213175343
676.036857415246,-82.87316899167693
684.4233185599473,-82.873114083272
692.8097797046487,-82.87316741435947
700.0,-82.87315808276165
700.0,-82.87315808276165
700.0000919951224,-82.86424447794334
700.0002758422004,-82.8474856627091
700.0007130008402,-82.81177110757858
700.00115015948,-82.77932283014546
700.0019407046784,-82.72624034160492
700.00323050578,-82.65190252006795
700.0055888688463,-82.5410148516946
700.0079472319126,-82.45162293598274
700.0103055949788,-82.3746801978482
700.0126639580451,-82.3056245634924
700.0166828923955,-82.1995491212332
700.0207018267458,-82.10542031203869
700.0247207610962,-82.02031447281858
700.0316890336034,-81.88854834956035
700.0386573061105,-81.77193523013696
700.051961313482,-81.57843195077858
700.0652653208535,-81.40947627065151
700.0785693282251,-81.25672081476274
700.0918733355966,-81.1165089590794
700.1051773429681,-80.98657569876248
700.1280246416126,-80.78266574291176
700.150871940257,-80.59720477142673
700.1737192389015,-80.42572341236611
700.2094698740655,-80.17951921927018
700.2452205092294,-79.95452769297837
700.2999682129501,-79.64131471736341
700.387704667388,-79.19559642014731
700.4754411218258,-78.80112262889315
700.5631775762637,-78.44589759971915
700.6509140307015,-78.1184952189131
700.7386504851394,-77.81032841906942
700.8263869395772,-77.51697466713809
700.9141233940151,-77.23608790031219
701.0485212901597,-76.82484677145962
701.1829191863043,-76.43166950017638
701.3173170824489,-76.05253311567549
701.4517149785935,-75.68441508473005
701.6632082559552,-75.1224144446606
701.8747015333169,-74.57723952251337
702.0861948106785,-74.04594372427036
702.2976880880402,-73.52649960520638
702.5091813654019,-73.01734371880644
702.895992175174,-72.10909686088276
703.5046058555773,-70.73077119005424
704.1132195359806,-69.40625288544618
704.721833216384,-68.1299060618467
705.3304468967873,-66.89360450537065
705.9390605771906,-65.68850900847781
706.5476742575939,-64.50704898514685
707.1562879379973,-63.34886963236693
707.7649016184006,-62.193377630024436
707.9170550385014,-61.904569606127225
708.0692084586022,-61.61791788069274
708.2213618787031,-61.327530163080944
708.3735152988039,-61.033025116079756
708.5256687189047,-60.739194786036855
708.6778221390056,-60.44083759860138
708.7820627169353,-60.23342307611352
708.8863032948651,-60.0278324166658
708.9905438727949,-59.81990928142492
709.0947844507247,-59.60577584942296
709.1990250286544,-59.388191741887276
709.3032656065842,-59.170504700637196
709.407506184514,-58.9476929343592
709.5117467624437,-58.71485973011384
709.6159873403735,-58.4751270502935
709.7202279183033,-58.23096181349111
709.8244684962331,-57.97336798080839
709.9287090741628,-57.69099795999654
710.0329496520926,-57.38321178922241
710.0590097965751,-57.30244499309301
710.0850699410576,-57.21854483340345
710.11113008554,-57.130415982107436
710.1522585560217,-56.98217585617364
710.1933870265034,-56.82144815061085
710.2345154969851,-56.64404010103713
710.2756439674667,-56.442245594835235
710.3167724379484,-56.20409698493479
710.3418756650188,-56.032528910174356
710.3669788920893,-55.83070522570885
710.3920821191597,-55.58378542027646
710.4074234207241,-55.40133747572311
710.4227647222884,-55.18424911008834
710.4381060238528,-54.918468108272116
710.4534473254172,-54.58274288043148
710.4687886269816,-54.14688688915283
710.4778318182579,-53.827766533931026
710.4868750095342,-53.45092190480583
710.4959182008105,-53.009733579498246
710.5049613920868,-52.50281388887596
710.5140045833631,-51.93532040276686
710.5230477746394,-51.31949654784186
710.5285262524419,-50.93000008618794
710.5340047302444,-50.53351488479688
710.5394832080469,-50.133324198839986
710.5449616858494,-49.731793792482776
710.550440163652,-49.33083743074044
710.5593123049413,-48.68655925930345
710.5681844462306,-48.05273518203109
710.5770565875199,-47.432826600411666
710.5859287288092,-46.82879112580249
710.5948008700985,-46.241779780758165
710.6036730113879,-45.67243054480158
710.6125451526772,-45.12127684143983
710.6214172939665,-44.58858117505562
710.6302894352558,-44.07437498903634
710.6444624636847,-43.290557515840696
710.6586354921136,-42.55167013722872
710.6728085205425,-41.855648213437966
710.6869815489714,-41.19972236360303
710.7011545774003,-40.58110106030873
710.7153276058292,-39.99676831805512
710.7295006342581,-39.443626460166264
710.743673662687,-38.91839472427503
710.7578466911159,-38.41793380355517
710.7830309502025,-37.57985965001913
710.8082152092891,-36.79349815418538
710.8333994683757,-36.0418738586018
710.8585837274622,-35.30897470710078
710.8837679865488,-34.57725811221535
710.9089522456354,-33.82979095336081
710.934136504722,-33.044871230914694
710.9593207638086,-32.199724911527646
710.9845050228952,-31.262577224071673
711.0096892819818,-30.196552962833554
711.0348735410684,-28.94563145370395
711.0600578001549,-27.43742333431181
711.0852420592415,-25.55613870762636
711.1104263183281,-23.14124513918341
711.1356105774147,-19.916557603161884
711.1607948365013,-15.532543244454253
711.1859790955879,-9.597731005560586
711.199545246318,-5.715042923993448
711.2131113970482,-1.414541275571106
711.2266775477784,3.0437642813932526
711.2402436985086,7.386566103079119
711.2538098492388,11.2757128717064
711.267375999969,14.480867097786753
711.2809421506992,16.9185759541382
711.2945083014293,18.634897552911177
711.3080744521595,19.727961101662924
711.3216406028897,20.3072768315875
711.3352067536199,20.47802922516121
711.3487729043501,20.33196559559547
711.3623390550803,19.9441647587412
711.3759052058105,19.37424065820465
711.3894713565406,18.66850799435987
711.4030375072708,17.862374583612034
711.416603658001,16.982840362497722
711.4301698087312,16.050573060157326
711.4437359594614,15.08147138245184
711.4573021101916,14.08785558516103
711.4708682609217,13.078751816782644
711.4844344116519,12.063016191099866
711.4980005623821,11.045955744510119
711.5115667131123,10.031847372914271
711.5251328638425,9.024503108198417
711.5386990145727,8.026698217165432
711.5606670650628,6.436035186435837
711.582635115553,4.881633930024217
711.6046031660431,3.3669102431832747
711.6265712165333,1.893254964048093
711.6485392670235,0.45935292094226937
711.6705073175136,-0.936254550064071
711.6924753680038,-2.295872929193971
711.7144434184939,-3.622665230485191
711.7364114689841,-4.9200697366436055
711.7583795194743,-6.191659089794023
711.7803475699644,-7.441070829316997
711.8023156204546,-8.67197685748976
711.8242836709447,-9.888057783917429
711.8462517214349,-11.092985916321586
711.868219771925,-12.29041359495363
711.8901878224152,-13.483959583111497
711.9121558729054,-14.677184160790452
711.9341239233955,-15.873544432517155
711.9560919738857,-17.07632509130364
711.9780600243758,-18.28853911277347
712.000028074866,-19.5127345955722
712.0219961253562,-20.7510369914777
712.0439641758463,-22.00467739608445
712.0659322263365,-23.2738348427793
712.0879002768266,-24.557357403245845
712.1098683273168,-25.852558876580638
712.131836377807,-27.154953721199067
712.1538044282971,-28.458180767987848
712.1757724787873,-29.754061489401938
712.1977405292774,-31.032928407172236
712.2197085797676,-32.284155429167846
712.2416766302578,-33.4969019629468
712.2636446807479,-34.660937036283315
712.2856127312381,-35.767436467474404
712.3075807817282,-36.80960356975183
712.3295488322184,-37.78303123195752
712.3515168827086,-38.68576994481151
712.3734849331987,-39.51813785081342
712.3954529836889,-40.282345840737335
712.417421034179,-40.98202741898725
712.4393890846692,-41.62188624000292
712.4613571351593,-42.20674621841335
712.4833251856495,-42.741926277526126
712.5052932361397,-43.23259486325476
712.5272612866298,-43.683594595408394
712.54922933712,-44.09935629150602
712.5711973876101,-44.483873346062666
712.5931654381003,-44.840695674478745
712.6151334885905,-45.17294852414249
712.6371015390806,-45.483365841637486
712.6590695895708,-45.77433062614889
712.6810376400609,-46.04791672398802
712.7030056905511,-46.305928341908846
712.7249737410413,-46.54993720178968
712.7469417915314,-46.78131582609569
712.7689098420216,-47.00126557339663
712.7908778925117,-47.21084026432825
712.8128459430019,-47.410966524423976
712.834813993492,-47.60246119901401
712.8567820439822,-47.786045994543684
712.8787500944724,-47.962358070401024
712.9007181449625,-48.131967418108395
712.9226861954527,-48.29537647548968
712.9446542459428,-48.45303294144955
712.966622296433,-48.60533640274321
712.9885903469232,-48.75264425275279
713.0229631705782,-48.97384341250203
713.0573359942333,-49.184657003882926
713.0917088178884,-49.38602093287599
713.1260816415435,-49.57871939730366
713.1604544651985,-49.76342630332996
713.1948272888536,-49.940726445363005
713.2292001125087,-50.111129727416326
713.2635729361638,-50.27508262595496
713.2979457598188,-50.43297782818889
713.3533702669478,-50.67567518693513
713.4087947740767,-50.9047634251101
713.4642192812056,-51.12128145533069
713.5500660336013,-51.433764313936386
713.635912785997,-51.720558426511836
713.7217595383927,-51.983448394773625
713.8076062907884,-52.223797757736655
713.8934530431841,-52.44264195059888
713.9792997955798,-52.6408430640056
714.0296733492138,-52.74786520609536
714.0800469028478,-52.84827072070836
714.1304204564818,-52.94228563663816
714.1807940101158,-53.03015499915965
714.2311675637499,-53.11213610832485
714.2815411173839,-53.18848790544332
714.3319146710179,-53.25946573348484
714.3822882246519,-53.3253178709569
714.4326617782859,-53.38628282027952
714.48303533192,-53.44258552332312
714.533408885554,-53.494437754859106
714.583782439188,-53.54204276156454
714.634155992822,-53.58560260826898
714.684529546456,-53.625322823491274
714.73490310009,-53.66141295500956
714.785276653724,-53.69408329540691
714.8356502073581,-53.723540662065474
714.8860237609921,-53.74998444937082
714.9363973146261,-53.77360402772725
714.9867708682601,-53.7945772687218
715.0371444218941,-53.81307032951365
715.0875179755282,-53.829238045834636
715.1642949708668,-53.84973003346335
715.2410719662054,-53.865616283997404
715.317848961544,-53.87730368406777
715.3946259568826,-53.88514185345266
715.4714029522212,-53.889423596425495
715.5481799475598,-53.890388080385506
715.6249569428984,-53.888228284724555
715.701733938237,-53.883100446298
715.7785109335756,-53.875133451672305
715.8552879289142,-53.86443648107424
715.9320649242528,-53.851105843309774
716.0088419195914,-53.83523085610845
716.08561891493,-53.816898873008654
716.1623959102686,-53.796198100448585
716.2391729056072,-53.773219119195396
716.3159499009458,-53.74805348448575
716.4390425089233,-53.70338195347955
716.5621351169008,-53.65373464353995
716.6852277248782,-53.599523584560146
716.8083203328557,-53.54116230967936
716.9314129408332,-53.47905183678509
717.0545055488107,-53.41357332829265
717.1775981567881,-53.34509671841807
717.3006907647656,-53.27395132449353
717.4237833727431,-53.200437001100426
717.6101714472032,-53.08511774778631
717.7965595216634,-52.96563967112972
717.9829475961236,-52.84252523377866
718.1693356705838,-52.71628671624146
718.355723745044,-52.5869862361435
718.5421118195042,-52.455269263056294
718.7284998939643,-52.32041124089583
718.9148879684245,-52.18436473560601
719.1012760428847,-52.043243451271046
719.2876641173449,-51.899966360520054
719.4740521918051,-51.75811171193076
719.6604402662653,-51.610777304061
719.8468283407254,-51.45856880209973
720.0332164151856,-51.306458128480294
720.2196044896458,-51.15766146193532
720.405992564106,-50.99757893500687
720.5326709349812,-50.88411843738702
720.6593493058564,-50.775484840527
720.7860276767316,-50.66376254885178
720.9127060476068,-50.544837656934654
721.039384418482,-50.424927847114134
721.1660627893572,-50.306391644520595
721.2927411602324,-50.18940219755428
721.4194195311076,-50.06453267475851
721.5460979019828,-49.929126300113104
721.672776272858,-49.79457543310966
721.7994546437332,-49.66327027275139
721.9261330146084,-49.52087328247669
722.0128119897515,-49.41326069181102
722.0994909648947,-49.305445614284764
722.1861699400379,-49.19811496146703
722.272848915181,-49.09179605302212
722.3595278903242,-48.97591522172505
722.415484141347,-48.893696455557986
722.4714403923697,-48.811750160882696
722.5273966433924,-48.72835512522191
722.5833528944152,-48.64125430426277
722.6393091454379,-48.551032459473916
722.6952653964606,-48.45963186245205
722.7512216474834,-48.36454270571449
722.8071778985061,-48.265240184399026
722.8631341495288,-48.1587831708321
722.9190904005516,-48.04115743502318
722.9750466515743,-47.91512909612781
723.031002902597,-47.78070202608264
723.0869591536198,-47.63072364177349
723.1429154046425,-47.45698596456136
723.1988716556652,-47.25643909757117
723.254827906688,-47.019537386604725
723.3107841577107,-46.716497413730735
723.3667404087334,-46.287910232650454
723.3959659692565,-45.9750397224204
723.4251915297796,-45.546879728086374
723.4436033604753,-45.18102494286573
723.4620151911711,-44.69757028149766
723.4733891183363,-44.32020793166082
723.4847630455015,-43.872092806682765
723.4961369726667,-43.35143507387097
723.5075108998319,-42.76725402165524
723.5154282227867,-42.33371172466207
723.5233455457414,-41.88819847570777
723.5312628686962,-41.438798775785045
723.539180191651,-40.991849835751715
723.5470975146058,-40.5521940543689
723.5550148375605,-40.12335384710462
723.5629321605153,-39.707593521083105
723.57084948347,-39.306086381213305
723.5827743836184,-38.729435782137294
723.5946992837667,-38.186426885723854
723.606624183915,-37.67590188154786
723.6185490840633,-37.196192601609596
723.6304739842116,-36.74526646323037
723.6423988843599,-36.32060715350417
723.6620384001654,-35.67164970956055
723.681677915971,-35.07545796763965
723.7013174317766,-34.52142025950595
723.7209569475822,-33.99981595265392
723.7405964633878,-33.50171744729447
723.7602359791933,-33.0191064677264
723.7798754949989,-32.544700939251975
723.7995150108045,-32.071673150553494
723.8191545266101,-31.593450030947334
723.8387940424157,-31.103778979634594
723.8584335582212,-30.59625450074084
723.8780730740268,-30.06418665755605
723.8977125898324,-29.500278282161222
723.917352105638,-28.89662026621923
723.9369916214436,-28.24397717417903
723.9746818587707,-26.812980483727873
724.0123720960979,-25.058905836805167
724.0500623334251,-22.851119674190073
724.0877525707523,-19.996100294009025
724.1254428080795,-16.260240659551695
724.1631330454067,-11.492831684916483
724.1819819254633,-8.793535694472652
724.20083080552,-5.968105900687705
724.2196796855767,-3.1551361914251874
724.2385285656334,-0.5042212621111403
724.25737744569,1.8285180828331205
724.2762263257467,3.7350710029317593
724.2950752058034,5.170247133812195
724.3139240858601,6.14301784278874
724.3327729659168,6.693397303855759
724.3516218459735,6.877331457472701
724.3704707260301,6.7565672185484065
724.3893196060868,6.390956276974873
724.4081684861435,5.833992970391434
724.4270173662002,5.131060702926445
724.4458662462569,4.319187061942993
724.4647151263135,3.4277289883396485
724.4835640063702,2.4795264833897646
724.5129770894669,0.9285503001695266
724.5423901725635,-0.6746100973841365
724.5718032556601,-2.296297499662127
724.6012163387568,-3.9181213775400914
724.6306294218534,-5.529368237717011
724.6600425049501,-7.123944229674477
724.6894555880467,-8.699957523175662
724.7188686711434,-10.258547995105307
724.74828175424,-11.802244428776467
724.7776948373366,-13.333896106986643
724.8071079204333,-14.856872560964206
724.8365210035299,-16.37481301682214
724.8659340866266,-17.891588896297304
724.8953471697232,-19.410024515706784
724.9247602528199,-20.93216411447329
