time,voltage
0.0,-80.0
0.00039844483379380843,-79.99993960667179
0.001964038001880863,-79.99970220643223
0.005988562823539511,-79.99909128051601
0.013131061746685501,-79.99800485711297
0.024540008019524225,-79.9962633714824
0.035948954292362945,-79.99451526442546
0.05626287782583988,-79.99138765408765
0.08987412792370145,-79.98616262496164
0.1528875688674551,-79.976187212624
0.21590100981120877,-79.9659862106919
0.27891445075496246,-79.95557888466818
0.3419278916987161,-79.94499184553743
0.45473219423135836,-79.9256888070195
0.5675364967640006,-79.90600584386416
0.7395424767936335,-79.87543272470218
0.9115484568232664,-79.84427048895016
1.083554436852899,-79.81259105555017
1.3658015095783091,-79.75959056868533
1.6480485823037192,-79.70542471533251
2.233473466989921,-79.58992699415086
2.818898351676123,-79.47120100893599
3.4043232363623246,-79.35058034177686
3.9897481210485264,-79.22938535200437
4.575173005734729,-79.10876703815637
5.5922610314233285,-78.90293343102799
6.609349057111928,-78.70460797010995
7.626437082800528,-78.51578393320415
9.200069589155982,-78.24430581317178
10.773702095511435,-77.99887988871315
13.212917282391277,-77.66875646705259
15.65213246927112,-77.39504834749826
18.091347656150962,-77.17127132423497
20.530562843030804,-76.99131406509483
22.969778029910646,-76.84955771692009
26.86995909467761,-76.68913094764275
30.770140159444573,-76.59374872763549
34.670321224211534,-76.54791740381575
38.570502288978496,-76.53958837232307
42.47068335374546,-76.55935953488304
46.37086441851242,-76.59975388108296
50.27104548327938,-76.6548124188898
54.17122654804634,-76.7198469435885
58.0714076128133,-76.7912045583624
61.971588677580264,-76.86603760468309
65.87176974234723,-76.94211716070447
69.7719508071142,-77.01770140158854
73.67213187188116,-77.09144936876235
77.57231293664813,-77.16236124364436
81.4724940014151,-77.22974038835117
85.37267506618207,-77.29314223210154
89.27285613094904,-77.35228339105997
93.173037195716,-77.40696319685559
97.07321826048297,-77.45705147953002
100.97339932524994,-77.50253914694818
104.87358039001691,-77.54357311871459
108.77376145478388,-77.58040106588209
112.67394251955085,-77.6132654803693
116.57412358431782,-77.64235747940556
120.47430464908479,-77.6678739474342
124.37448571385175,-77.6900841619137
128.27466677861872,-77.70930854544969
132.1748478433857,-77.72584284250968
136.07502890815266,-77.73993323779446
139.97520997291963,-77.7518139493843
143.8753910376866,-77.76172793038437
147.77557210245357,-77.76990782300841
151.67575316722053,-77.77655950296037
155.5759342319875,-77.78186965736369
159.47611529675447,-77.78600901303882
163.37629636152144,-77.78913297089109
167.2764774262884,-77.79138499544436
171.17665849105538,-77.79289589534562
175.07683955582235,-77.79378648389746
178.97702062058931,-77.79418196845944
182.87720168535628,-77.79420547482351
186.77738275012325,-77.79393993380567
190.67756381489022,-77.79341455369256
194.5777448796572,-77.79264561063323
198.47792594442416,-77.79167901907748
202.37810700919113,-77.79058015813804
206.2782880739581,-77.78940323980815
210.17846913872506,-77.78818324019669
214.07865020349203,-77.78694723555446
217.978831268259,-77.78571277257205
221.87901233302597,-77.78448198374657
225.77919339779294,-77.7832595744806
229.6793744625599,-77.78207591432941
233.57955552732687,-77.78097335780241
237.47973659209384,-77.77996439704502
241.3799176568608,-77.7790205304966
245.28009872162778,-77.77811121409108
249.18027978639475,-77.77723903279374
253.08046085116172,-77.77642492255798
256.9806419159287,-77.77567534103805
260.88082298069565,-77.77498085274995
264.7810040454626,-77.77433468048875
268.6811851102296,-77.77373889764432
272.58136617499656,-77.77319518439393
276.48154723976353,-77.77270266490343
280.3817283045305,-77.77226362977994
284.28190936929747,-77.77188375679219
288.18209043406443,-77.77155902484296
292.0822714988314,-77.7712668405049
295.9824525635984,-77.7709768361603
299.88263362836534,-77.77067930178124
303.7828146931323,-77.77039339938956
307.6829957578993,-77.77014008628868
311.58317682266625,-77.76991098403404
315.4833578874332,-77.76967737147163
319.3835389522002,-77.7694337413085
323.28372001696715,-77.76921707681592
327.1839010817341,-77.76907088856987
331.0840821465011,-77.76899721377222
334.98426321126806,-77.76895707342486
338.884444276035,-77.76891292165118
342.784625340802,-77.76885667745363
346.68480640556896,-77.76880022564877
350.58498747033593,-77.76875287379472
354.4851685351029,-77.76871361642972
358.38534959986987,-77.76867453346463
362.28553066463684,-77.768629545279
366.1857117294038,-77.7685830887732
370.0858927941708,-77.76854955530877
373.98607385893774,-77.76853837491657
377.8862549237047,-77.76854381791146
381.7864359884717,-77.76855467553453
385.68661705323865,-77.76857180971753
389.5867981180056,-77.76860821570483
393.4869791827726,-77.7686687894648
397.38716024753955,-77.76873714878415
401.2873413123065,-77.76878797592899
405.1875223770735,-77.7688100131597
409.08770344184046,-77.76881134957077
412.98788450660743,-77.76880558607871
416.8880655713744,-77.76879990074015
420.78824663614137,-77.76879787422297
424.68842770090833,-77.76880604996768
428.5886087656753,-77.76883008916593
432.4887898304423,-77.76886573679585
436.38897089520924,-77.76889826088355
440.2891519599762,-77.76891358955656
444.1893330247432,-77.76890836784658
448.08951408951015,-77.76889033475604
451.9896951542771,-77.76886823318728
455.8898762190441,-77.76884586056465
459.79005728381105,-77.76882708603189
463.690238348578,-77.76881774446568
467.590419413345,-77.76881577054347
471.49060047811196,-77.76880675438848
475.3907815428789,-77.76877898715534
479.2909626076459,-77.76873899636676
483.19114367241286,-77.76870192530342
487.09132473717983,-77.76867357479432
490.9915058019468,-77.76865023031071
494.89168686671377,-77.7686292564911
498.79186793148074,-77.76860710225306
502.6920489962477,-77.76857381482502
506.5922300610147,-77.76852356138997
510.49241112578164,-77.7684671364067
514.3925921905486,-77.76842526068954
518.2927732553155,-77.76840862063167
522.1929543200824,-77.7684117837759
526.0931353848493,-77.76842222424233
529.9933164496163,-77.7684332208477
532.6985128502015,-77.76844391620504
535.4037092507867,-77.76846260451786
538.108905651372,-77.76848788588629
540.8141020519572,-77.76850983928344
543.5192984525424,-77.76851907329619
546.2244948531277,-77.76851695124633
548.9296912537129,-77.76851311342979
551.6348876542982,-77.76851455550863
554.3400840548834,-77.76852079318462
557.0452804554686,-77.76852873049337
559.7504768560539,-77.76853687089881
562.4556732566391,-77.76854506339824
564.3295113289348,-77.76855141653027
566.2033494012305,-77.76855965810829
568.0771874735262,-77.76857036492798
571.1718544923053,-77.76858911688412
574.2665215110844,-77.7686042782369
577.3611885298635,-77.76861979929389
580.4558555486426,-77.76864589059232
583.5505225674217,-77.76868452284101
586.6451895862008,-77.76872632911481
589.7398566049799,-77.76876167660635
592.834523623759,-77.76878832940531
595.9291906425381,-77.76880752894046
598.0710226484506,-77.76881596513613
600.2128546543631,-77.76881819592366
602.3546866602757,-77.76881421410992
604.4965186661882,-77.76880739539217
606.6383506721007,-77.76880237515708
608.7801826780133,-77.76880140314205
610.9220146839258,-77.768803220891
613.0638466898383,-77.76880549785298
615.2056786957509,-77.76880748670817
617.3475107016634,-77.76881005205495
619.4893427075759,-77.76881401306095
622.7517286610243,-77.76882172849928
626.0141146144728,-77.76882949347225
629.2765005679212,-77.7688350584027
632.5388865213696,-77.76883732369197
635.801272474818,-77.76883677189566
639.0636584282664,-77.76883466813193
642.3260443817148,-77.76883233731279
645.5884303351633,-77.76883048210398
648.8508162886117,-77.76882938307662
652.1132022420601,-77.76882893065049
655.3755881955085,-77.76882907243913
658.6379741489569,-77.76882962417646
661.9003601024053,-77.76883057141484
665.1627460558537,-77.7688317455511
668.4251320093022,-77.76883242132172
671.6875179627506,-77.7688312582885
674.949903916199,-77.76882734198236
678.2122898696474,-77.76882096418046
681.4746758230958,-77.76881373600858
684.7370617765442,-77.7688074177154
687.9994477299927,-77.76880277947039
691.2618336834411,-77.76879940569083
697.6035419212263,-77.76879427324674
700.0,-77.76879327341308
700.0,-77.76879327341308
700.0000693142402,-77.76879327338386
700.0001938428442,-77.76879327333135
700.000522085762,-77.76879327319297
700.0008503286798,-77.76879327305458
700.0015409408652,-77.76879327276345
700.0022315530506,-77.76879327247231
700.0039461804208,-77.76879327174956
700.0056608077911,-77.7687932710269
700.0073754351613,-77.76879327030431
700.0090900625315,-77.76879326958183
700.0117660285397,-77.76879326845446
700.0144419945478,-77.76879326732731
700.0185697522669,-77.76879326558908
700.022697509986,-77.76879326385139
700.026825267705,-77.76879326211419
700.0335132745745,-77.76879325929978
700.040201281444,-77.76879325648117
700.0523767672323,-77.76879325106529
700.0645522530207,-77.76879324349848
700.076727738809,-77.76879322619075
700.0889032245974,-77.76879317554753
700.1010787103858,-77.7687930318094
700.1209115383327,-77.76879211954449
700.1407443662797,-77.76878907756927
700.1605771942267,-77.76878117598507
700.1916604332736,-77.7687469886233
700.2227436723205,-77.7686616905173
700.2538269113674,-77.76848801363111
700.3137809056981,-77.76774386449132
700.3737349000288,-77.76619208734968
700.4336888943595,-77.7635494696121
700.4936428886903,-77.75961320104794
700.553596883021,-77.7542529084307
700.6443731920314,-77.74321866141126
700.7351495010417,-77.72848938644385
700.8259258100521,-77.70994605173988
700.9167021190625,-77.68752573806263
701.0074784280729,-77.66120272367439
701.1626171904936,-77.60717384244417
701.3177559529144,-77.5418097550406
701.4728947153351,-77.46524930666892
701.6280334777558,-77.37765102124956
701.7831722401766,-77.2791843534279
701.9383110025973,-77.17002499072771
702.093449765018,-77.050339927733
702.1322344556232,-77.01879209171202
702.1710191462284,-76.98659696854699
702.2098038368337,-76.95375582902838
702.2485885274389,-76.92026963058
702.2873732180441,-76.88613885698658
702.3134528949238,-76.86282610496113
702.3395325718035,-76.83922159493827
702.3460524910234,-76.83327482990062
702.3525724102434,-76.82730979080208
702.3590923294634,-76.82132646620326
702.3720902327836,-76.80934368430961
702.385088136104,-76.79728805831255
702.3925096500751,-76.79037184267278
702.3999311640463,-76.78343180367472
702.4073526780174,-76.77646790695152
702.4147741919886,-76.76948011461323
702.4221957059598,-76.76246838469828
702.4267588934234,-76.75814525336166
702.4313220808871,-76.75381304325634
702.4358852683507,-76.74947174170957
702.4404484558144,-76.74512133523922
702.445011643278,-76.74076180944361
702.4495748307417,-76.73639314889844
702.4541380182053,-76.73201533705621
702.4619243160707,-76.72452416915753
702.4697106139362,-76.71700620619777
702.4774969118016,-76.70946133755974
702.485283209667,-76.70188943592262
702.4930695075325,-76.69429035431097
702.5008558053979,-76.68666392280385
702.5086421032634,-76.67900994436378
702.5164284011288,-76.67132818992566
702.5242146989942,-76.66361839305348
702.5320009968597,-76.65588024441172
702.5397872947251,-76.6481133862499
702.5475735925905,-76.64031740710568
702.555359890456,-76.63249183694263
702.5631461883214,-76.62463614292128
702.5709324861868,-76.61674972595617
702.5787187840523,-76.60883191815795
702.5865050819177,-76.60088198121083
702.5942913797832,-76.5928991056974
702.6020776776486,-76.5848824113531
702.609863975514,-76.57683094821125
702.6176502733795,-76.56874369858268
702.6254365712449,-76.56061957980349
702.6332228691103,-76.5524574476766
702.6410091669758,-76.54425610052816
702.6487954648412,-76.53601428379613
702.6565817627067,-76.5277306950649
702.6643680605721,-76.5194039894557
702.6721543584375,-76.51103278527913
702.6771990100328,-76.50558476029731
702.6822436616281,-76.50011707391593
702.6872883132235,-76.49462933253112
702.6923329648188,-76.4891211393123
702.6973776164141,-76.483592094914
702.7024222680094,-76.47804179818318
702.7074669196047,-76.4724698467935
702.7125115712,-76.4668758378205
702.7175562227953,-76.46125936828435
702.7226008743907,-76.45562003566664
702.727645525986,-76.44995743839402
702.7326901775813,-76.44427117627953
702.7377348291766,-76.43856085091645
702.7427794807719,-76.43282606602187
702.7478241323672,-76.42706642772802
702.7528687839625,-76.4212815448185
702.7579134355578,-76.41547102890681
702.7629580871532,-76.40963449455415
702.7680027387485,-76.40377155932426
702.7730473903438,-76.39788184377254
702.7780920419391,-76.39196497136774
702.7831366935344,-76.38602056834307
702.7881813451297,-76.38004826347493
702.793225996725,-76.3740476877863
702.7982706483203,-76.36801847417215
702.8033152999157,-76.36196025694385
702.808359951511,-76.35587267128912
702.8134046031063,-76.34975535264394
702.8184492547016,-76.34360793597213
702.8234939062969,-76.33743005494809
702.8285385578922,-76.33122134103745
702.8335832094875,-76.32498142247013
702.8386278610828,-76.31870992309966
702.8436725126782,-76.31240646114229
702.8487171642735,-76.30607064778944
702.8537618158688,-76.29970208568673
702.8588064674641,-76.2933003672735
702.8638511190594,-76.28686507297752
702.8688957706547,-76.28039576926099
702.87394042225,-76.27389200651633
702.8789850738453,-76.26735331681289
702.8840297254407,-76.26077921150002
702.889074377036,-76.25416917867659
702.8941190286313,-76.24752268054262
702.8991636802266,-76.24083915065535
702.9042083318219,-76.23411799111857
702.9092529834172,-76.22735856974109
702.9142976350125,-76.22056021720671
702.9193422866078,-76.21372222430365
702.9243869382032,-76.20684383926589
702.9294315897985,-76.19992426528144
702.9344762413938,-76.19296265822327
702.9395208929891,-76.18595812465695
702.9445655445844,-76.17890972017553
702.9496101961797,-76.17181644810604
702.954654847775,-76.16467725862476
702.9596994993703,-76.15749104830917
702.9647441509657,-76.15025666014478
702.969788802561,-76.14297288399509
702.9748334541563,-76.13563845753217
702.9798781057516,-76.1282520676167
702.9849227573469,-76.12081235210698
702.9899674089422,-76.11331790206957
702.9950120605375,-76.10576726435798
703.0000567121328,-76.09815894452171
703.0051013637282,-76.0904914100046
703.0101460153235,-76.08276309359015
703.0151906669188,-76.07497239705131
703.0202353185141,-76.06711769496295
703.0252799701094,-76.05919733863675
703.0303246217047,-76.05120966014117
703.0353692733,-76.0431529763715
703.0404139248953,-76.0350255931384
703.0454585764907,-76.02682580924649
703.050503228086,-76.01855192053765
703.0555478796813,-76.01020222387669
703.0605925312766,-76.0017750210599
703.0656371828719,-75.99326862262912
703.0706818344672,-75.98468135157637
703.0757264860625,-75.97601154692585
703.0807711376578,-75.96725756718126
703.0858157892532,-75.95841779362837
703.0908604408485,-75.94949063348301
703.0959050924438,-75.94047452287616
703.1009497440391,-75.93136792966844
703.1059943956344,-75.92216935608722
703.1110390472297,-75.91287734118016
703.116083698825,-75.90349046308008
703.1211283504203,-75.89400734107691
703.1261730020157,-75.88442663749358
703.131217653611,-75.87474705936347
703.1362623052063,-75.86496735990882
703.1413069568016,-75.85508633982015
703.1463516083969,-75.84510284833858
703.1513962599922,-75.83501578414375
703.1564409115875,-75.8248240960518
703.1614855631829,-75.81452678352895
703.1665302147782,-75.80412289702741
703.1715748663735,-75.79361153815158
703.1766195179688,-75.78299185966334
703.1816641695641,-75.77226306533628
703.1867088211594,-75.76142440966933
703.1917534727547,-75.75047519747073
703.19679812435,-75.73941478332365
703.2018427759454,-75.72824257094514
703.2068874275407,-75.7169580124498
703.211932079136,-75.70556060752969
703.2169767307313,-75.69404990256157
703.2220213823266,-75.68242548965206
703.2270660339219,-75.67068700563098
703.2321106855172,-75.65883413100227
703.2371553371125,-75.64686658886113
703.2421999887079,-75.63478414378565
703.2472446403032,-75.62258660070972
703.2522892918985,-75.61027380378371
703.2573339434938,-75.59784563522823
703.2623785950891,-75.5853020141858
703.2674232466844,-75.572642895574
703.2724678982797,-75.55986826894326
703.277512549875,-75.54697815734157
703.2825572014704,-75.53397261618805
703.2876018530657,-75.52085173215617
703.292646504661,-75.50761562206753
703.2976911562563,-75.49426443179625
703.3027358078516,-75.48079833518395
703.3077804594469,-75.46721753296482
703.3128251110422,-75.45352225170016
703.3178697626375,-75.43971274272164
703.3229144142329,-75.4257892810824
703.3279590658282,-75.41175216451525
703.3330037174235,-75.39760171239675
703.3380483690188,-75.38333826471683
703.3430930206141,-75.36896218105288
703.3481376722094,-75.35447383954794
703.3531823238047,-75.33987363589235
703.3582269754,-75.32516198230877
703.3632716269954,-75.31033930654046
703.3683162785907,-75.29540605084262
703.373360930186,-75.28036267097733
703.3784055817813,-75.26520963521234
703.3834502333766,-75.2499474233243
703.3884948849719,-75.23457652560711
703.3935395365672,-75.21909744188636
703.3985841881625,-75.20351068054063
703.4036288397579,-75.18781675753092
703.4086734913532,-75.1720161954393
703.4137181429485,-75.15610952251795
703.4187627945438,-75.14009727175
703.4238074461391,-75.12397997992332
703.4288520977344,-75.1077581867188
703.4338967493297,-75.09143243381415
703.438941400925,-75.07500326400489
703.4439860525204,-75.05847122034345
703.4490307041157,-75.04183684529781
703.454075355711,-75.02510067993076
703.4591200073063,-75.00826326310093
703.4641646589016,-74.99132513068656
703.4692093104969,-74.97428681483296
703.4742539620922,-74.95714884322445
703.4792986136875,-74.93991173838157
703.4843432652829,-74.92257601698434
703.4893879168782,-74.90514218922185
703.4944325684735,-74.88761075816882
703.4994772200688,-74.86998221918954
703.5045218716641,-74.85225705936936
703.5095665232594,-74.83443575697393
703.5146111748547,-74.81651878093639
703.51965582645,-74.79850659037231
703.5247004780454,-74.78039963412269
703.5297451296407,-74.7621983503245
703.534789781236,-74.74390316600893
703.5398344328313,-74.7255144967268
703.5448790844266,-74.70703274620098
703.5499237360219,-74.68845830600547
703.5549683876172,-74.66979155527073
703.5600130392125,-74.65103286041477
703.5650576908079,-74.63218257489952
703.5701023424032,-74.61324103901197
703.5751469939985,-74.59420857966965
703.5801916455938,-74.57508551024969
703.5852362971891,-74.5558721304409
703.5902809487844,-74.53656872611839
703.5953256003797,-74.5171755692399
703.600370251975,-74.49769291776326
703.6054149035704,-74.47812101558436
703.6104595551657,-74.45846009249469
703.615504206761,-74.43871036415807
703.6205488583563,-74.41887203210551
703.6255935099516,-74.39894528374764
703.6306381615469,-74.3789302924039
703.6356828131422,-74.35882721734758
703.6407274647376,-74.33863620386612
703.6457721163329,-74.31835738333554
703.6508167679282,-74.29799087330845
703.6558614195235,-74.27753677761451
703.6609060711188,-74.25699518647264
703.6659507227141,-74.23636617661383
703.6709953743094,-74.21564981141381
703.6760400259047,-74.1948461410345
703.6810846775,-74.17395520257317
703.6861293290954,-74.15297702021834
703.6911739806907,-74.13191160541145
703.696218632286,-74.11075895701286
703.7012632838813,-74.0895190614715
703.7063079354766,-74.06819189299668
703.7113525870719,-74.04677741373092
703.7163972386672,-74.02527557392277
703.7214418902626,-74.00368631209813
703.7264865418579,-73.982009555229
703.7315311934532,-73.96024521889831
703.7365758450485,-73.93839320745948
703.7416204966438,-73.91645341418956
703.7466651482391,-73.89442572143454
703.7517097998344,-73.87231000074557
703.7567544514297,-73.85010611300473
703.761799103025,-73.82781390853931
703.7668437546204,-73.80543322722319
703.7718884062157,-73.78296389856418
703.776933057811,-73.76040574177618
703.7819777094063,-73.73775856583522
