time,voltage
0.0,6.5e-05
0.00039844483379380843,6.50000000015403e-05
0.001964038001880863,6.500000000759285e-05
0.005988562823539511,6.500000002315291e-05
0.013131061746685501,6.500000005076981e-05
0.024540008019524225,6.500000009488505e-05
0.035948954292362945,6.50000001389997e-05
0.05626287782583988,6.500000021754653e-05
0.08987412792370145,6.500000034749481e-05
0.1528875688674551,6.50000005910606e-05
0.21590100981120877,6.500000083450015e-05
0.27891445075496246,6.500000107781571e-05
0.3419278916987161,6.500000132097985e-05
0.45473219423135836,6.500000175582154e-05
0.5675364967640006,6.500000219004019e-05
0.7395424767936335,6.500000285076815e-05
0.9115484568232664,6.500000350974518e-05
1.083554436852899,6.50000041668378e-05
1.3658015095783091,6.500000524065918e-05
1.6480485823037192,6.500000630874017e-05
2.233473466989921,6.500000850430824e-05
2.818898351676123,6.500001067104726e-05
3.4043232363623246,6.500001280770514e-05
3.9897481210485264,6.500001491257651e-05
4.575173005734729,6.500001698501506e-05
5.5922610314233285,6.50000205076634e-05
6.609349057111928,6.500002393047768e-05
7.626437082800528,6.50000272536758e-05
9.200069589155982,6.500003220401735e-05
10.773702095511435,6.500003693134543e-05
13.212917282391277,6.500004385131899e-05
15.65213246927112,6.500005032613029e-05
18.091347656150962,6.500005641523253e-05
20.530562843030804,6.50000621759273e-05
22.969778029910646,6.500006766019256e-05
26.86995909467761,6.500007596140169e-05
30.770140159444573,6.50000838133632e-05
34.670321224211534,6.500009133432431e-05
38.570502288978496,6.500009860395757e-05
42.47068335374546,6.50001056828906e-05
46.37086441851242,6.500011261237329e-05
50.27104548327938,6.5000119418646e-05
54.17122654804634,6.500012611780817e-05
58.0714076128133,6.500013271952213e-05
61.971588677580264,6.50001392285684e-05
65.87176974234723,6.500014564716422e-05
69.7719508071142,6.500015197457994e-05
73.67213187188116,6.500015820931236e-05
77.57231293664813,6.500016434992697e-05
81.4724940014151,6.500017039467331e-05
85.37267506618207,6.500017634187046e-05
89.27285613094904,6.50001821903434e-05
93.173037195716,6.500018793977646e-05
97.07321826048297,6.500019359063481e-05
100.97339932524994,6.500019914387962e-05
104.87358039001691,6.500020460048629e-05
108.77376145478388,6.500020996216359e-05
112.67394251955085,6.500021523024684e-05
116.57412358431782,6.500022040786158e-05
120.47430464908479,6.500022549793133e-05
124.37448571385175,6.500023050207723e-05
128.27466677861872,6.500023542201858e-05
132.1748478433857,6.500024026136483e-05
136.07502890815266,6.500024502361993e-05
139.97520997291963,6.500024971079858e-05
143.8753910376866,6.500025432465274e-05
147.77557210245357,6.500025886763502e-05
151.67575316722053,6.500026334290146e-05
155.5759342319875,6.500026775207196e-05
159.47611529675447,6.50002720969623e-05
163.37629636152144,6.500027637954789e-05
167.2764774262884,6.500028060248783e-05
171.17665849105538,6.5000284766967e-05
175.07683955582235,6.500028887408671e-05
178.97702062058931,6.500029292580808e-05
182.87720168535628,6.500029692294368e-05
186.77738275012325,6.500030086647969e-05
190.67756381489022,6.500030475755176e-05
194.5777448796572,6.500030859769039e-05
198.47792594442416,6.500031238713105e-05
202.37810700919113,6.50003161267405e-05
206.2782880739581,6.500031981786168e-05
210.17846913872506,6.500032346170322e-05
214.07865020349203,6.500032705796667e-05
217.978831268259,6.500033060771146e-05
221.87901233302597,6.500033411167368e-05
225.77919339779294,6.500033757025454e-05
229.6793744625599,6.500034098434577e-05
233.57955552732687,6.500034435369543e-05
237.47973659209384,6.500034767882653e-05
241.3799176568608,6.500035096088135e-05
245.28009872162778,6.500035420047558e-05
249.18027978639475,6.500035739729356e-05
253.08046085116172,6.500036055162895e-05
256.9806419159287,6.500036366441623e-05
260.88082298069565,6.500036673630743e-05
264.7810040454626,6.50003697676502e-05
268.6811851102296,6.500037275865171e-05
272.58136617499656,6.500037571017222e-05
276.48154723976353,6.500037862241781e-05
280.3817283045305,6.500038149573268e-05
284.28190936929747,6.500038433054218e-05
288.18209043406443,6.500038712721794e-05
292.0822714988314,6.500038988619253e-05
295.9824525635984,6.500039260803774e-05
299.88263362836534,6.500039529326579e-05
303.7828146931323,6.500039794247614e-05
307.6829957578993,6.500040055590913e-05
311.58317682266625,6.500040313408291e-05
315.4833578874332,6.500040567750939e-05
319.3835389522002,6.500040818660957e-05
323.28372001696715,6.500041066201872e-05
327.1839010817341,6.500041310352085e-05
331.0840821465011,6.50004155117423e-05
334.98426321126806,6.500041788742765e-05
338.884444276035,6.50004202306989e-05
342.784625340802,6.500042254160303e-05
346.68480640556896,6.500042482062377e-05
350.58498747033593,6.500042706866863e-05
354.4851685351029,6.50004292860494e-05
358.38534959986987,6.500043147296339e-05
362.28553066463684,6.500043362988789e-05
366.1857117294038,6.50004357573581e-05
370.0858927941708,6.500043785571216e-05
373.98607385893774,6.500043992524517e-05
377.8862549237047,6.500044196629461e-05
381.7864359884717,6.500044397933647e-05
385.68661705323865,6.500044596467972e-05
389.5867981180056,6.500044792262764e-05
393.4869791827726,6.500044985351377e-05
397.38716024753955,6.500045175754776e-05
401.2873413123065,6.500045363537882e-05
405.1875223770735,6.500045548729299e-05
409.08770344184046,6.500045731359397e-05
412.98788450660743,6.50004591146903e-05
416.8880655713744,6.500046089113542e-05
420.78824663614137,6.500046264332287e-05
424.68842770090833,6.500046437150125e-05
428.5886087656753,6.500046607590468e-05
432.4887898304423,6.50004677567341e-05
436.38897089520924,6.500046941443638e-05
440.2891519599762,6.50004710493177e-05
444.1893330247432,6.500047266176686e-05
448.08951408951015,6.500047425199318e-05
451.9896951542771,6.50004758205351e-05
455.8898762190441,6.500047736754551e-05
459.79005728381105,6.500047889342067e-05
463.690238348578,6.500048039852885e-05
467.590419413345,6.500048188282838e-05
471.49060047811196,6.500048334688797e-05
475.3907815428789,6.500048479125249e-05
479.2909626076459,6.500048621590174e-05
483.19114367241286,6.500048762089651e-05
487.09132473717983,6.500048900656882e-05
490.9915058019468,6.500049037364046e-05
494.89168686671377,6.500049172207329e-05
498.79186793148074,6.5000493051888e-05
502.6920489962477,6.500049436344151e-05
506.5922300610147,6.50004956570808e-05
510.49241112578164,6.500049693323791e-05
514.3925921905486,6.500049819183529e-05
518.2927732553155,6.500049943329718e-05
522.1929543200824,6.500050065779918e-05
526.0931353848493,6.500050186564977e-05
529.9933164496163,6.500050305658926e-05
532.6985128502015,6.500050387288845e-05
535.4037092507867,6.500050468146348e-05
538.108905651372,6.500050548225037e-05
540.8141020519572,6.500050627533804e-05
543.5192984525424,6.500050706086044e-05
546.2244948531277,6.500050783886335e-05
548.9296912537129,6.500050860935275e-05
551.6348876542982,6.50005093724777e-05
554.3400840548834,6.500051012843226e-05
557.0452804554686,6.50005108771381e-05
559.7504768560539,6.500051161864683e-05
562.4556732566391,6.500051235301756e-05
564.3295113289348,6.500051285759229e-05
566.2033494012305,6.500051335884348e-05
568.0771874735262,6.500051385675113e-05
571.1718544923053,6.500051467183904e-05
574.2665215110844,6.500051547811578e-05
577.3611885298635,6.500051627550182e-05
580.4558555486426,6.500051706391764e-05
583.5505225674217,6.500051784356898e-05
586.6451895862008,6.500051861476295e-05
589.7398566049799,6.500051937752444e-05
592.834523623759,6.50005201316899e-05
595.9291906425381,6.50005208775983e-05
598.0710226484506,6.500052138910947e-05
600.2128546543631,6.500052189672361e-05
602.3546866602757,6.500052240050547e-05
604.4965186661882,6.500052290048244e-05
606.6383506721007,6.500052339667208e-05
608.7801826780133,6.50005238891249e-05
610.9220146839258,6.500052437788067e-05
613.0638466898383,6.500052486294722e-05
615.2056786957509,6.500052534433269e-05
617.3475107016634,6.50005258220614e-05
619.4893427075759,6.50005262961796e-05
622.7517286610243,6.500052701143774e-05
626.0141146144728,6.500052771845573e-05
629.2765005679212,6.500052841732607e-05
632.5388865213696,6.50005291081719e-05
635.801272474818,6.500052979106984e-05
639.0636584282664,6.500053046612869e-05
642.3260443817148,6.500053113341865e-05
645.5884303351633,6.500053179305491e-05
648.8508162886117,6.50005324450997e-05
652.1132022420601,6.50005330896661e-05
655.3755881955085,6.500053372680503e-05
658.6379741489569,6.500053435663458e-05
661.9003601024053,6.500053497919883e-05
665.1627460558537,6.500053559462301e-05
668.4251320093022,6.500053620296501e-05
671.6875179627506,6.500053680430119e-05
674.949903916199,6.50005373987357e-05
678.2122898696474,6.500053798637415e-05
681.4746758230958,6.500053856726391e-05
684.7370617765442,6.500053914149862e-05
687.9994477299927,6.500053970914416e-05
691.2618336834411,6.500054027026956e-05
697.6035419212263,6.500054134278648e-05
700.0,6.5000541741873e-05
700.0,6.5000541741873e-05
700.0000693142402,6.500054174188447e-05
700.0001938428442,6.500054174190505e-05
700.000522085762,6.500054174195899e-05
700.0008503286798,6.500054174201268e-05
700.0015409408652,6.500054174212492e-05
700.0022315530506,6.500054174223639e-05
700.0039461804208,6.500054174250994e-05
700.0056608077911,6.500054174277985e-05
700.0073754351613,6.50005417430464e-05
700.0090900625315,6.500054174330997e-05
700.0117660285397,6.500054174371652e-05
700.0144419945478,6.500054174411773e-05
700.0185697522669,6.500054174472839e-05
700.022697509986,6.500054174533038e-05
700.026825267705,6.500054174592535e-05
700.0335132745745,6.50005417468785e-05
700.040201281444,6.500054174782177e-05
700.0523767672323,6.500054174952711e-05
700.0645522530207,6.500054175123707e-05
700.076727738809,6.500054175296787e-05
700.0889032245974,6.500054175473696e-05
700.1010787103858,6.500054175655873e-05
700.1209115383327,6.50005417596715e-05
700.1407443662797,6.500054176301305e-05
700.1605771942267,6.500054176663777e-05
700.1916604332736,6.500054177301373e-05
700.2227436723205,6.500054178042072e-05
700.2538269113674,6.500054178906578e-05
700.3137809056981,6.50005418100408e-05
700.3737349000288,6.500054183804335e-05
700.4336888943595,6.500054187493612e-05
700.4936428886903,6.50005419226365e-05
700.553596883021,6.500054198349294e-05
700.6443731920314,6.500054210680604e-05
700.7351495010417,6.500054227755784e-05
700.8259258100521,6.500054250925079e-05
700.9167021190625,6.50005428189097e-05
701.0074784280729,6.500054322812995e-05
701.1626171904936,6.500054424077785e-05
701.3177559529144,6.500054581777553e-05
701.4728947153351,6.500054823873002e-05
701.6280334777558,6.500055192194263e-05
701.7831722401766,6.500055749726382e-05
701.9383110025973,6.500056591576909e-05
702.093449765018,6.500057865136168e-05
702.1322344556232,6.500058274269082e-05
702.1710191462284,6.500058728925567e-05
702.2098038368337,6.500059234741326e-05
702.2485885274389,6.500059798260921e-05
702.2873732180441,6.500060427330608e-05
702.3134528949238,6.500060892054846e-05
702.3395325718035,6.500061394702354e-05
702.3460524910234,6.500061526815234e-05
702.3525724102434,6.500061661688659e-05
702.3590923294634,6.50006179941916e-05
702.3720902327836,6.50006208299604e-05
702.385088136104,6.500062379468941e-05
702.3925096500751,6.500062555020308e-05
702.3999311640463,6.500062735549682e-05
702.4073526780174,6.500062921488346e-05
702.4147741919886,6.500063113365046e-05
702.4221957059598,6.500063311894045e-05
702.4267588934234,6.500063437629182e-05
702.4313220808871,6.500063566447401e-05
702.4358852683507,6.500063698625787e-05
702.4404484558144,6.500063834467826e-05
702.445011643278,6.500063974308356e-05
702.4495748307417,6.500064118516366e-05
702.4541380182053,6.500064267496921e-05
702.4619243160707,6.500064534031128e-05
702.4697106139362,6.500064818285515e-05
702.4774969118016,6.50006512318191e-05
702.485283209667,6.50006545220804e-05
702.4930695075325,6.500065809527103e-05
702.5008558053979,6.500066200095425e-05
702.5086421032634,6.500066629842977e-05
702.5164284011288,6.50006710587547e-05
702.5242146989942,6.500067636726299e-05
702.5320009968597,6.500068232601637e-05
702.5397872947251,6.500068905690948e-05
702.5475735925905,6.500069670477876e-05
702.555359890456,6.500070544120662e-05
702.5631461883214,6.500071546844784e-05
702.5709324861868,6.500072702342246e-05
702.5787187840523,6.500074038250236e-05
702.5865050819177,6.500075586648652e-05
702.5942913797832,6.50007738461687e-05
702.6020776776486,6.500079474870328e-05
702.609863975514,6.500081906479335e-05
702.6176502733795,6.500084735724732e-05
702.6254365712449,6.500088027007608e-05
702.6332228691103,6.500091854147069e-05
702.6410091669758,6.500096301698372e-05
702.6487954648412,6.500101466771375e-05
702.6565817627067,6.500107461147704e-05
702.6643680605721,6.50011441391147e-05
702.6721543584375,6.500122474696992e-05
702.6771990100328,6.500128369306567e-05
702.6822436616281,6.50013485524033e-05
702.6872883132235,6.500141992284652e-05
702.6923329648188,6.500149846862729e-05
702.6973776164141,6.500158493016708e-05
702.7024222680094,6.500168013535449e-05
702.7074669196047,6.500178501228872e-05
702.7125115712,6.500190060401627e-05
702.7175562227953,6.500202808580321e-05
702.7226008743907,6.500216878537737e-05
702.727645525986,6.500232420657519e-05
702.7326901775813,6.500249605692075e-05
702.7377348291766,6.50026862797514e-05
702.7427794807719,6.500289709155123e-05
702.7478241323672,6.500313102516557e-05
702.7528687839625,6.500339097954217e-05
702.7579134355578,6.500368027655045e-05
702.7629580871532,6.500400272523459e-05
702.7680027387485,6.500436269323912e-05
702.7730473903438,6.500476518602605e-05
702.7780920419391,6.50052159302756e-05
702.7831366935344,6.500572146343128e-05
702.7881813451297,6.500628922676234e-05
702.793225996725,6.500692764946968e-05
702.7982706483203,6.500764622839955e-05
702.8033152999157,6.50084555956232e-05
702.808359951511,6.500936757558291e-05
702.8134046031063,6.501039521604049e-05
702.8184492547016,6.5011552795715e-05
702.8234939062969,6.50128558060654e-05
702.8285385578922,6.501432091014439e-05
702.8335832094875,6.50159658762083e-05
702.8386278610828,6.501780948837465e-05
702.8436725126782,6.501987143589441e-05
702.8487171642735,6.50221721839233e-05
702.8537618158688,6.50247328272065e-05
702.8588064674641,6.502757492910969e-05
702.8638511190594,6.503072034978767e-05
702.8688957706547,6.503419106924052e-05
702.87394042225,6.503800901204076e-05
702.8789850738453,6.504219591708013e-05
702.8840297254407,6.5046773073924e-05
702.889074377036,6.505176130744871e-05
702.8941190286313,6.505718080668145e-05
702.8991636802266,6.50630510523798e-05
702.9042083318219,6.506939079100329e-05
702.9092529834172,6.507621792812018e-05
702.9142976350125,6.508354950017453e-05
702.9193422866078,6.509140166298079e-05
702.9243869382032,6.509978967852179e-05
702.9294315897985,6.510872791219047e-05
702.9344762413938,6.511822984062716e-05
702.9395208929891,6.512830806410495e-05
702.9445655445844,6.513897432170266e-05
702.9496101961797,6.515023950991582e-05
702.954654847775,6.516211370435349e-05
702.9596994993703,6.517460618340176e-05
702.9647441509657,6.518772545306313e-05
702.969788802561,6.520147927261773e-05
702.9748334541563,6.521587468086772e-05
702.9798781057516,6.523091801794307e-05
702.9849227573469,6.524661496233025e-05
702.9899674089422,6.526297055890576e-05
702.9950120605375,6.52799892333297e-05
703.0000567121328,6.529767481751214e-05
703.0051013637282,6.531603058521528e-05
703.0101460153235,6.533505927707561e-05
703.0151906669188,6.535476312331162e-05
703.0202353185141,6.537514386872747e-05
703.0252799701094,6.53962027974029e-05
703.0303246217047,6.541794075622618e-05
703.0353692733,6.544035817771512e-05
703.0404139248953,6.546345510211343e-05
703.0454585764907,6.548723119865579e-05
703.050503228086,6.551168578602205e-05
703.0555478796813,6.553681785197247e-05
703.0605925312766,6.556262607212396e-05
703.0656371828719,6.558910882786065e-05
703.0706818344672,6.561626422340768e-05
703.0757264860625,6.564409010210337e-05
703.0807711376578,6.567258406134443e-05
703.0858157892532,6.570174346852832e-05
703.0908604408485,6.573156547522784e-05
703.0959050924438,6.576204702917286e-05
703.1009497440391,6.579318488684295e-05
703.1059943956344,6.582497562666711e-05
703.1110390472297,6.585741566053268e-05
703.116083698825,6.589050124451041e-05
703.1211283504203,6.592422848940226e-05
703.1261730020157,6.595859337087572e-05
703.131217653611,6.599359173910122e-05
703.1362623052063,6.602921932796895e-05
703.1413069568016,6.606547176392304e-05
703.1463516083969,6.610234457442766e-05
703.1513962599922,6.61398331960867e-05
703.1564409115875,6.617793298243644e-05
703.1614855631829,6.621663921142658e-05
703.1665302147782,6.625594709260234e-05
703.1715748663735,6.629585177400188e-05
703.1766195179688,6.63363483487821e-05
703.1816641695641,6.63774318615798e-05
703.1867088211594,6.641909731463113e-05
703.1917534727547,6.646133967365104e-05
703.19679812435,6.650415387346513e-05
703.2018427759454,6.654753482333957e-05
703.2068874275407,6.659147741225072e-05
703.211932079136,6.663597651380066e-05
703.2169767307313,6.668102699089167e-05
703.2220213823266,6.672662370022474e-05
703.2270660339219,6.677276149657443e-05
703.2321106855172,6.681943523681677e-05
703.2371553371125,6.686663978371988e-05
703.2421999887079,6.691437000950451e-05
703.2472446403032,6.696262079917285e-05
703.2522892918985,6.701138705360335e-05
703.2573339434938,6.706066369241258e-05
703.2623785950891,6.7110445656588e-05
703.2674232466844,6.7160727910897e-05
703.2724678982797,6.721150544607951e-05
703.277512549875,6.726277328083221e-05
703.2825572014704,6.731452646360104e-05
703.2876018530657,6.736676007417633e-05
703.292646504661,6.741946922509435e-05
703.2976911562563,6.7472649062904e-05
703.3027358078516,6.752629476932787e-05
703.3077804594469,6.75804015621719e-05
703.3128251110422,6.763496469615743e-05
703.3178697626375,6.768997946365427e-05
703.3229144142329,6.774544119528268e-05
703.3279590658282,6.780134526039885e-05
703.3330037174235,6.785768706748526e-05
703.3380483690188,6.791446206445176e-05
703.3430930206141,6.797166573884837e-05
703.3481376722094,6.802929361799273e-05
703.3531823238047,6.808734126901786e-05
703.3582269754,6.814580429884567e-05
703.3632716269954,6.820467835409153e-05
703.3683162785907,6.826395912090475e-05
703.373360930186,6.832364232475049e-05
703.3784055817813,6.838372373013841e-05
703.3834502333766,6.844419914033763e-05
703.3884948849719,6.850506439695013e-05
703.3935395365672,6.856631537948794e-05
703.3985841881625,6.862794800503338e-05
703.4036288397579,6.86899582278157e-05
703.4086734913532,6.875234203865634e-05
703.4137181429485,6.881509546447229e-05
703.4187627945438,6.887821456779323e-05
703.4238074461391,6.894169544625125e-05
703.4288520977344,6.90055342320481e-05
703.4338967493297,6.906972709141926e-05
703.438941400925,6.913427022409913e-05
703.4439860525204,6.919915986278451e-05
703.4490307041157,6.926439227259572e-05
703.454075355711,6.932996375053876e-05
703.4591200073063,6.939587062497207e-05
703.4641646589016,6.94621092550801e-05
703.4692093104969,6.952867603035565e-05
703.4742539620922,6.959556737009238e-05
703.4792986136875,6.966277972289057e-05
703.4843432652829,6.973030956621397e-05
703.4893879168782,6.979815340586426e-05
703.4944325684735,6.98663077755258e-05
703.4994772200688,6.993476923643933e-05
703.5045218716641,7.00035343770065e-05
703.5095665232594,7.007259981237074e-05
703.5146111748547,7.014196218406916e-05
703.51965582645,7.021161815972428e-05
703.5247004780454,7.02815644327447e-05
703.5297451296407,7.035179772203187e-05
703.534789781236,7.042231477170055e-05
703.5398344328313,7.04931123508054e-05
703.5448790844266,7.056418725306403e-05
703.5499237360219,7.06355362965826e-05
703.5549683876172,7.07071563235904e-05
703.5600130392125,7.077904420017257e-05
703.5650576908079,7.085119681598522e-05
703.5701023424032,7.09236110839536e-05
703.5751469939985,7.099628393996152e-05
