time,voltage
0.0,6.5e-05
0.00029702639401385435,6.500000000114823e-05
0.0012811017770143146,6.500000000495258e-05
0.0037035836891833387,6.500000001431823e-05
0.007745764713209809,6.50000000299467e-05
0.013898451895147332,6.500000005373627e-05
0.020051139077084855,6.500000007752621e-05
0.03106312389092749,6.50000001201061e-05
0.04859256547294544,6.5000000187886e-05
0.08161991437855728,6.500000031558453e-05
0.11464726328416913,6.500000044326147e-05
0.14767461218978098,6.500000057091683e-05
0.18070196109539283,6.500000069854422e-05
0.23652336611408645,6.500000091417155e-05
0.29234477113278007,6.500000112968616e-05
0.3481661761514737,6.500000134507408e-05
0.44492716746645256,6.500000171808033e-05
0.5416881587814314,6.500000209062059e-05
0.697299202800048,6.500000268865692e-05
0.8529102468186646,6.500000328527234e-05
1.1327515009652775,6.500000435425419e-05
1.4125927551118904,6.500000541770413e-05
1.6924340092585033,6.500000647531268e-05
1.9722752634051162,6.500000752667237e-05
2.252116517551729,6.500000857154391e-05
2.7441227889870707,6.500001039232263e-05
3.4922702633773595,6.50000131193279e-05
4.240417737767649,6.500001579411221e-05
4.988565212157937,6.50000184148268e-05
5.736712686548225,6.5000020980678e-05
6.4848601609385135,6.500002349156097e-05
7.707760075654756,6.500002747902563e-05
8.930659990370998,6.500003132455125e-05
10.15355990508724,6.500003503308106e-05
12.067987605145078,6.50000405801168e-05
13.982415305202915,6.50000458358892e-05
15.896843005260752,6.500005082936283e-05
19.11305787680683,6.500005870631246e-05
22.32927274835291,6.500006605695782e-05
25.54548761989899,6.500007298844974e-05
28.761702491445067,6.500007959484311e-05
31.977917362991146,6.500008595217487e-05
35.19413223453723,6.500009211695108e-05
40.13316752825274,6.50001013017913e-05
45.07220282196826,6.500011023306892e-05
50.01123811568378,6.500011897439802e-05
54.9502734093993,6.500012756226042e-05
63.2761155635164,6.500014172341533e-05
71.6019577176335,6.500015548392448e-05
79.9277998717506,6.500016883536422e-05
88.25364202586769,6.500018171504065e-05
96.57948417998479,6.500019414469416e-05
104.90532633410189,6.500020616445581e-05
113.23116848821898,6.500021773314478e-05
121.55701064233608,6.500022883955459e-05
129.88285279645316,6.500023954869294e-05
138.20869495057025,6.500024991249831e-05
146.53453710468733,6.500025992935829e-05
154.86037925880441,6.500026959117471e-05
163.1862214129215,6.500027893521882e-05
171.51206356703858,6.500028801493857e-05
179.83790572115566,6.50002968462316e-05
188.16374787527275,6.500030541426665e-05
196.48959002938983,6.500031372516954e-05
204.8154321835069,6.500032180692388e-05
213.141274337624,6.500032967837132e-05
221.46711649174108,6.500033733709765e-05
229.79295864585816,6.500034478078367e-05
238.11880079997525,6.500035201504325e-05
246.44464295409233,6.50003590525523e-05
254.7704851082094,6.500036589886264e-05
263.0963272623265,6.500037255464014e-05
271.4221694164436,6.500037902182798e-05
279.74801157056066,6.500038530696583e-05
288.07385372467775,6.500039141534411e-05
296.39969587879483,6.500039735253519e-05
304.7255380329119,6.5000403120574e-05
313.051380187029,6.500040872344384e-05
321.3772223411461,6.500041416497144e-05
329.70306449526316,6.500041945112934e-05
338.02890664938025,6.500042458533397e-05
346.35474880349733,6.500042957239954e-05
354.6805909576144,6.500043441423033e-05
363.0064331117315,6.500043911615969e-05
371.3322752658486,6.500044368172894e-05
379.65811741996566,6.50004481162229e-05
387.98395957408275,6.50004524212784e-05
396.30980172819983,6.500045660188633e-05
404.6356438823169,6.500046066008677e-05
412.961486036434,6.500046460155433e-05
421.2873281905511,6.50004684278928e-05
429.61317034466816,6.500047214393688e-05
437.93901249878525,6.500047575062127e-05
446.26485465290233,6.500047925365711e-05
454.5906968070194,6.50004826537971e-05
462.9165389611365,6.50004859564072e-05
471.2423811152536,6.500048916159972e-05
479.56822326937066,6.500049227492321e-05
487.89406542348775,6.500049529616203e-05
496.21990757760483,6.500049823129184e-05
504.5457497317219,6.500050107936662e-05
512.871591885839,6.500050384634771e-05
521.1974340399562,6.500050653092808e-05
529.5232761940733,6.500050913950095e-05
537.8491183481905,6.500051167003537e-05
546.1749605023076,6.50005141293114e-05
554.5008026564248,6.500051651460941e-05
562.8266448105419,6.500051883306975e-05
571.152486964659,6.500052108139575e-05
579.4783291187762,6.500052326726666e-05
587.8041712728933,6.500052538644676e-05
596.1300134270105,6.500052744727285e-05
604.4558555811276,6.500052944471251e-05
612.7816977352447,6.500053138770122e-05
621.1075398893619,6.500053327031145e-05
629.433382043479,6.500053510231972e-05
637.7592241975962,6.500053687663421e-05
646.0850663517133,6.500053860399868e-05
654.4109085058304,6.500054027623682e-05
662.7367506599476,6.500054190502986e-05
671.0625928140647,6.50005434909901e-05
679.3884349681819,6.500054503306937e-05
687.714277122299,6.500054652278414e-05
696.0401192764161,6.500054796912169e-05
700.0,6.500054864131999e-05
700.0,6.500054864131999e-05
700.0000524463628,6.500054864132881e-05
700.0001366094444,6.500054864134298e-05
700.0003184828217,6.500054864137347e-05
700.000500356199,6.500054864140388e-05
700.0008693520949,6.500054864146536e-05
700.0012383479908,6.500054864152656e-05
700.0021510373052,6.500054864167683e-05
700.0030637266196,6.500054864182572e-05
700.0039764159341,6.500054864197333e-05
700.0048891052485,6.500054864211981e-05
700.0063196457286,6.500054864234748e-05
700.0077501862087,6.500054864257294e-05
700.0091807266888,6.500054864279643e-05
700.0115699063784,6.500054864316604e-05
700.0139590860681,6.500054864353141e-05
700.0177114466896,6.500054864409807e-05
700.0214638073112,6.500054864465707e-05
700.0279349425734,6.500054864560694e-05
700.0344060778357,6.500054864654434e-05
700.0408772130979,6.500054864747335e-05
700.0473483483602,6.50005486483981e-05
700.0538194836224,6.500054864932186e-05
700.0643284086555,6.500054865082659e-05
700.0748373336885,6.500054865234661e-05
700.0853462587215,6.500054865389214e-05
700.1014688628297,6.500054865633364e-05
700.1175914669379,6.500054865888888e-05
700.1337140710461,6.500054866158818e-05
700.1633445688138,6.500054866702278e-05
700.1929750665815,6.500054867321779e-05
700.2226055643492,6.500054868035802e-05
700.2522360621169,6.500054868861616e-05
700.2818665598846,6.500054869818221e-05
700.3114970576523,6.500054870925666e-05
700.3592844427144,6.50005487308179e-05
700.4070718277765,6.500054875775263e-05
700.4548592128385,6.500054879106399e-05
700.5026465979006,6.500054883186928e-05
700.5504339829627,6.50005488814058e-05
700.6299158409985,6.50005489869266e-05
700.7510263701682,6.500054921882513e-05
700.872136899338,6.500054956707109e-05
700.9932474285077,6.500055007617152e-05
701.1143579576775,6.500055080872495e-05
701.2354684868473,6.500055185146877e-05
701.356579016017,6.500055332289642e-05
701.4776895451868,6.500055538576983e-05
701.6779284999285,6.500056075820356e-05
701.8781674546702,6.500057009483682e-05
701.9282271933557,6.500057332622254e-05
701.9782869320412,6.500057704229162e-05
702.0283466707267,6.500058132326293e-05
702.0784064094122,6.500058626802811e-05
702.0909213440835,6.500058762160575e-05
702.1034362787549,6.50005890267815e-05
702.1226105777237,6.50005912858771e-05
702.1301384091192,6.500059220989627e-05
702.1376662405148,6.500059315591984e-05
702.150420420834,6.500059481123402e-05
702.1631746011533,6.50005965363883e-05
702.1759287814725,6.500059833661938e-05
702.1886829617918,6.500060021831779e-05
702.1969970567347,6.500060149263504e-05
702.2053111516777,6.50006028079921e-05
702.2136252466207,6.500060416811284e-05
702.2219393415637,6.500060557770575e-05
702.2302534365067,6.500060704298534e-05
702.2358638119738,6.500060806709687e-05
702.2414741874409,6.500060912302414e-05
702.247084562908,6.50006102141509e-05
702.252694938375,6.500061134433326e-05
702.2583053138421,6.500061251792328e-05
702.2639156893092,6.500061373980314e-05
702.2695260647763,6.50006150154222e-05
702.2751364402434,6.50006163508642e-05
702.2836607905731,6.500061850992093e-05
702.2921851409028,6.500062085034949e-05
702.3007094912325,6.5000623404322e-05
702.3092338415622,6.500062620976045e-05
702.3177581918919,6.500062931144922e-05
702.3307341348075,6.500063472463167e-05
702.343710077723,6.500064118218769e-05
702.3566860206386,6.500064898175073e-05
702.3696619635541,6.50006585052428e-05
702.3826379064697,6.50006702426137e-05
702.3956138493852,6.50006848168432e-05
702.4085897923007,6.500070301957817e-05
702.4215657352163,6.50007258468973e-05
702.4345416781318,6.500075455546834e-05
702.4475176210474,6.500079071586661e-05
702.4604935639629,6.500083630674804e-05
702.4734695068785,6.500089380141074e-05
702.493047771955,6.500101069860346e-05
702.5126260370316,6.500117715922029e-05
702.5322043021082,6.500141447386976e-05
702.5517825671848,6.500175497029538e-05
702.5713608322613,6.500224884805731e-05
702.5909390973379,6.50029807459142e-05
702.6105173624145,6.500408314584457e-05
702.6300956274911,6.500578526091043e-05
702.6496738925676,6.50084783565198e-05
702.658840959884,6.501022983064283e-05
702.6680080272002,6.501241061504088e-05
702.6771750945165,6.501511355571479e-05
702.6863421618328,6.501845133527098e-05
702.6955092291491,6.502253932544184e-05
702.7046762964654,6.50275046837802e-05
702.7138433637817,6.503347539045566e-05
702.723010431098,6.504058338923941e-05
702.7321774984143,6.504895824848287e-05
702.7413445657306,6.50587256973118e-05
702.7505116330469,6.507000461483931e-05
702.7596787003632,6.508290550888681e-05
702.7688457676795,6.50975293583766e-05
702.7780128349958,6.51139670168399e-05
702.7871799023121,6.513229914795552e-05
702.7963469696284,6.515259653322836e-05
702.8055140369447,6.517492057222181e-05
702.8198875115767,6.521412185349385e-05
702.8342609862086,6.52585969038906e-05
702.8486344608406,6.530847072885878e-05
702.8630079354725,6.536381367082999e-05
702.8773814101045,6.542467443937253e-05
702.8917548847364,6.549106611140207e-05
702.9061283593684,6.55629713129925e-05
702.9205018340003,6.564036300938476e-05
702.9348753086323,6.572319335319392e-05
702.9492487832642,6.58113932815021e-05
702.9636222578962,6.590488642190232e-05
702.9779957325281,6.600358480384483e-05
702.9923692071601,6.610738852422418e-05
703.006742681792,6.62161938522467e-05
703.021116156424,6.632989130726333e-05
703.035489631056,6.644836542142969e-05
703.0498631056879,6.657149930872403e-05
703.0642365803199,6.669917433484172e-05
703.0786100549518,6.683127019154448e-05
703.0929835295838,6.696766707828033e-05
703.1073570042157,6.710824589406173e-05
703.1217304788477,6.725288847689215e-05
703.1361039534796,6.740147852018578e-05
703.1504774281116,6.75539017800277e-05
703.1648509027435,6.771004620741776e-05
703.1792243773755,6.786980221616388e-05
703.1935978520074,6.803306276875764e-05
703.2079713266394,6.819972341339851e-05
703.2223448012713,6.836968231732239e-05
703.2367182759033,6.854284025690012e-05
703.2510917505352,6.871910058454998e-05
703.2654652251672,6.88983691842236e-05
703.2798386997991,6.908055441794602e-05
703.2942121744311,6.926556706562622e-05
703.308585649063,6.94533202605269e-05
703.322959123695,6.9643729422141e-05
703.337332598327,6.983671218678811e-05
703.3517060729589,7.003218833524551e-05
703.3660795475909,7.023007971641963e-05
703.3804530222228,7.04303101663391e-05
703.3948264968548,7.063280542219717e-05
703.4091999714867,7.083749303145243e-05
703.4235734461187,7.104430225595833e-05
703.4379469207506,7.125316397081057e-05
703.4523203953826,7.146401055720544e-05
703.4666938700145,7.167677578818635e-05
703.4810673446465,7.189139470575976e-05
703.4954408192784,7.210780348752623e-05
703.5098142939104,7.23259393007468e-05
703.5241877685423,7.254574014171298e-05
703.5385612431743,7.276714465844815e-05
703.5529347178062,7.299009195514645e-05
703.5673081924382,7.321452137735047e-05
703.5816816670701,7.34403722776978e-05
703.5960551417021,7.366758376318841e-05
703.6185270827226,7.402539326632824e-05
703.6409990237431,7.43861392497193e-05
703.6634709647636,7.474957548043346e-05
703.6859429057841,7.51154456881194e-05
703.7084148468047,7.548348172620975e-05
703.7308867878252,7.585340354707867e-05
703.7533587288457,7.622491911078086e-05
703.7758306698662,7.659772656799961e-05
703.7983026108867,7.697151790549927e-05
703.8207745519072,7.734598482315815e-05
703.8432464929277,7.772082355491434e-05
703.8657184339482,7.809574033828207e-05
703.8881903749688,7.847045609338406e-05
703.9106623159893,7.884471095303614e-05
703.9331342570098,7.921826643349803e-05
703.9556061980303,7.959090546570552e-05
703.9780781390508,7.996243280594301e-05
704.0,8.032362810434474e-05
704.0,8.032362810434474e-05
704.0000005350304,8.032363690365178e-05
704.0000439755108,8.032435139239099e-05
704.0001237953627,8.032566439102574e-05
704.0002962822338,8.032850243490668e-05
704.0005634704081,8.033290010171363e-05
704.0008306585825,8.033729927665221e-05
704.0013080933406,8.034516292036061e-05
704.0017855280988,8.03530297079414e-05
704.0029008142886,8.037141832991663e-05
704.0040161004785,8.03898204775784e-05
704.0051313866683,8.040823450273851e-05
704.0062466728581,8.042665875076893e-05
704.0079397393748,8.045464290585843e-05
704.0096328058916,8.048264321995034e-05
704.0113258724083,8.051065702007702e-05
704.0141586631838,8.055755047982657e-05
704.0169914539593,8.060446656361474e-05
704.0215227911269,8.067954413106455e-05
704.0260541282945,8.075464611221108e-05
704.0336798999554,8.088105001595354e-05
704.0413056716162,8.100741645561822e-05
704.0489314432771,8.11337084773923e-05
704.0565572149379,8.12598898101068e-05
704.0641829865988,8.138593336288021e-05
704.0763229163729,8.158626106479154e-05
704.088462846147,8.178612284082617e-05
704.1006027759211,8.198545827925796e-05
704.119005590225,8.228651954561313e-05
704.137408404529,8.25861100664982e-05
704.1558112188329,8.28841035726888e-05
704.1742140331369,8.318039756118211e-05
704.1926168474408,8.347490575583349e-05
704.2110196617448,8.376755125197596e-05
704.2294224760487,8.40582638744727e-05
704.2478252903527,8.434698031015813e-05
704.2662281046566,8.46336444494398e-05
704.2846309189606,8.491820683596974e-05
704.3127263637589,8.534849398461268e-05
704.3408218085572,8.577364460985678e-05
704.3689172533554,8.619354577832671e-05
704.3970126981537,8.660810168743334e-05
704.425108142952,8.701723271029538e-05
704.4532035877503,8.742087313208626e-05
704.4812990325486,8.781896960570073e-05
704.5093944773469,8.821147983068269e-05
704.5374899221451,8.859837133871577e-05
704.5655853669434,8.897962040637073e-05
704.5936808117417,8.935521116303671e-05
704.62177625654,8.97251348381126e-05
704.6498717013383,9.008938910640101e-05
704.6923969761159,9.062995193485468e-05
704.7349222508935,9.115757406484505e-05
704.7774475256712,9.167231280722285e-05
704.8199728004488,9.217424811498166e-05
704.8624980752264,9.266348006317853e-05
704.9050233500041,9.314012610159171e-05
704.9475486247817,9.360431871510791e-05
704.9900738995593,9.405620353083079e-05
705.058690534621,9.475979766659759e-05
705.1273071696826,9.543247407616426e-05
705.1959238047442,9.607500086602465e-05
705.2645404398058,9.66881952390516e-05
705.3331570748675,9.727291216290964e-05
705.4017737099291,9.783003468104607e-05
705.4480162749935,9.819038319057491e-05
705.4942588400579,9.853888817684048e-05
705.5405014051223,9.88758313760179e-05
705.5867439701867,9.920149634352222e-05
705.6329865352511,9.951616750164847e-05
705.6792291003155,9.982012929029924e-05
705.7254716653799,0.00010011366544595449
705.7717142304443,0.0001003970583947203
705.8179567955087,0.0001006705886911221
705.8641993605731,0.00010093453440894275
705.9104419256375,0.00010118917091465435
705.956684490702,0.00010143477008105638
706.0029270557663,0.00010167160009991333
706.0491696208308,0.00010189992515371603
706.0954121858952,0.00010212000508137028
706.1416547509596,0.0001023320951453903
706.187897316024,0.00010253644583774253
706.2341398810884,0.00010273330269403162
706.2803824461528,0.00010292290612883227
706.3266250112172,0.00010310549130080186
706.3728675762816,0.00010328128800407036
706.419110141346,0.00010345052058184257
706.4653527064104,0.00010361340786269106
706.5115952714748,0.00010377016312027599
706.5578378365392,0.00010392099405465209
706.6040804016036,0.00010406610279215238
706.650322966668,0.00010420568590156556
706.6965655317324,0.0001043399344252025
706.7428080967968,0.00010446903392369105
706.7890506618612,0.00010459316453328589
706.8352932269256,0.00010471250103447518
706.88153579199,0.00010482721293066284
706.9277783570544,0.00010493746453560904
706.9995383356802,0.00010510009518196586
707.071298314306,0.00010525293823033112
707.1430582929318,0.00010539653692475248
707.2148182715575,0.00010553140752805448
707.2865782501833,0.00010565804036397468
707.3583382288091,0.0001057769007629004
707.4300982074349,0.00010588843001725462
707.5018581860606,0.00010599304638429537
707.5736181646864,0.00010609114608478825
707.6453781433122,0.00010618310425425017
707.717138121938,0.0001062692758527109
707.7888981005638,0.00010634999655747767
707.8606580791895,0.00010642558364523827
707.9324180578153,0.00010649633685314342
708.0041780364411,0.00010656253920982437
708.0759380150669,0.00010662445783769864
708.1476979936926,0.00010668234473150089
708.2194579723184,0.00010673643751406225
708.2912179509442,0.00010678696016649653
708.36297792957,0.00010683412373092263
708.4347379081958,0.00010687812698639037
708.5569798979043,0.00010694633518745204
708.6792218876128,0.00010700676381172723
708.8014638773213,0.00010706018195263964
708.9237058670299,0.00010710728243912401
709.0459478567384,0.00010714868894759083
709.2362721176083,0.00010720313152842587
709.4265963784783,0.0001072469738230908
709.6169206393482,0.00010728178288911837
709.8072449002182,0.0001073088850445373
709.9975691610881,0.00010732940479507292
710.187893421958,0.00010734429503891033
710.378217682828,0.0001073543622657362
710.5685419436979,0.00010736028867594642
710.9089249211346,0.00010736234933694509
711.2493078985713,0.00010735563167866215
711.5896908760079,0.00010734207092167897
711.9300738534446,0.0001073231139538602
712.2704568308812,0.00010729986176308028
712.6108398083179,0.00010727315323063234
712.9512227857546,0.00010724362499027582
713.2916057631912,0.0001072117620890077
713.6319887406279,0.0001071779388521265
714.1472595123721,0.00010712366085284605
714.6625302841163,0.00010706633872432404
715.1778010558605,0.000107006518637965
715.6930718276047,0.00010694461739482778
716.208342599349,0.00010688096948968262
716.7236133710932,0.00010681584617546033
717.2388841428374,0.0001067494683187714
717.7541549145816,0.00010668201849965869
718.2694256863258,0.00010661365075626907
718.78469645807,0.00010654449705865459
719.2999672298142,0.00010647467167375418
719.8152380015584,0.00010640427363190639
720.3305087733027,0.00010633338924926585
720.8457795450469,0.000106262093563329
721.3610503167911,0.00010619045229448913
721.8763210885353,0.00010611852296210895
722.3915918602795,0.00010604635603958343
722.9068626320237,0.00010597399561462997
723.4221334037679,0.0001059014805160137
723.9374041755121,0.00010582884463665355
724.4526749472564,0.00010575611787592195
724.9679457190006,0.0001056833265219563
725.4832164907448,0.00010561049361150168
725.998487262489,0.0001055376393835559
726.7983627315718,0.00010542454235544893
727.5982382006547,0.00010531149174657557
728.3981136697375,0.000105198534971083
729.1979891388204,0.0001050857105578397
729.9978646079032,0.00010497304978572197
731.2090345167303,0.0001048028231583563
732.4202044255574,0.00010463309700915844
733.6313743343844,0.00010446392449558885
734.8425442432115,0.00010429534400875169
736.0537141520385,0.00010412738334742218
737.2648840608656,0.00010396006274394291
738.4760539696927,0.00010379339690995145
740.3481952596011,0.00010353708618957582
742.2203365495095,0.0001032823888524451
744.0924778394179,0.00010302932006457211
745.9646191293264,0.00010277788597807992
747.8367604192348,0.0001025280870270882
749.7089017091432,0.00010227992009425663
