time,voltage
0.0,-80.0
0.0002989975869093987,-79.9999546813538
0.0012925203502985587,-79.99980405458264
0.003739567736800839,-79.99943281767428
0.007828007369448147,-79.99881187833886
0.014054817189508347,-79.99786449902936
0.020281627009568547,-79.99691536159739
0.03142589369846535,-79.99521267982004
0.049177464812045914,-79.992487914946
0.08259600687046753,-79.98730992277135
0.11601454892888916,-79.98206574123974
0.14943309098731078,-79.97675357834082
0.1828516330457324,-79.97137479191207
0.23935883084848247,-79.96214138303192
0.2958660286512325,-79.95275010169567
0.35237322645398256,-79.9432216231501
0.45046472738883697,-79.92642017459879
0.5485562283236913,-79.90933385501002
0.7064046592979748,-79.8813540323849
0.8642530902722583,-79.85286974247141
1.1479777129412598,-79.80057619740873
1.4317023356102614,-79.74704344108962
1.715426958279263,-79.69238113156646
1.9991515809482645,-79.6366913990241
2.282876203617266,-79.58011019811707
2.783090147448483,-79.47868429941265
3.5419715506172067,-79.32239882952972
4.300852953785931,-79.16559876043341
5.059734356954655,-79.01054343011742
5.818615760123379,-78.85889301996082
6.577497163292103,-78.71175421045386
7.814869873225697,-78.48299812028336
9.052242583159291,-78.26957581225113
10.289615293092886,-78.07213198359798
12.22788292448321,-77.79445466234861
14.166150555873532,-77.55353934128367
16.104418187263853,-77.3464932421328
19.34182230796085,-77.06780271123912
22.579226428657847,-76.8604756079657
25.816630549354844,-76.7113528172006
29.05403467005184,-76.60961990090071
32.29143879074884,-76.54630080473127
35.528842911445835,-76.51376705390886
40.506315360914535,-76.50940764345806
45.483787810383234,-76.54482973104405
50.46126025985193,-76.60693272409641
55.43873270932063,-76.68600585102142
63.82519384551253,-76.8386328386423
72.21165498170443,-76.99647599646309
80.59811611789632,-77.14459160314615
88.98457725408822,-77.2752218633683
97.37103839028012,-77.38644957926505
105.75749952647202,-77.47873057862695
114.14396066266391,-77.55274801686778
122.53042179885581,-77.60992033489093
130.9168829350477,-77.65237699678985
139.30334407123962,-77.68247297989627
147.6898052074315,-77.70321768520054
156.0762663436234,-77.7172554838215
164.46272747981527,-77.72576296581194
172.84918861600715,-77.7299281142299
181.23564975219904,-77.7313433213097
189.62211088839092,-77.73084630846206
198.0085720245828,-77.72919102531498
206.3950331607747,-77.72717775157426
214.78149429696657,-77.72472313330535
223.16795543315845,-77.72192771687563
231.55441656935034,-77.71948401119867
239.94087770554222,-77.71750083485466
248.3273388417341,-77.71558696100324
256.713799977926,-77.71374713179722
265.10026111411787,-77.71207946834384
273.48672225030975,-77.71065165293867
281.87318338650164,-77.70959908597807
290.2596445226935,-77.70874153474351
298.6461056588854,-77.70789804914989
307.0325667950773,-77.70724116166032
315.41902793126917,-77.7067821227889
323.80548906746105,-77.70638559039337
332.19195020365294,-77.70609871785243
340.5784113398448,-77.70586746838148
348.9648724760367,-77.70561505542672
357.3513336122286,-77.70547085782162
365.73779474842047,-77.70540742923212
374.12425588461235,-77.70529574332899
382.51071702080424,-77.70521881769562
390.8971781569961,-77.70518834880376
399.283639293188,-77.70512126960179
407.6701004293799,-77.70509658119035
416.05656156557177,-77.70511044698807
424.44302270176365,-77.7050654963975
432.82948383795554,-77.70504105239202
441.2159449741474,-77.70506323762075
449.6024061103393,-77.70503934317401
457.9888672465312,-77.70502686067913
466.37532838272307,-77.70505215436347
474.76178951891495,-77.70502989404103
483.14825065510684,-77.70501553388478
491.5347117912987,-77.70504577531196
499.9211729274906,-77.70503174394617
508.3076340636825,-77.70501583307562
516.6940951998744,-77.70504299006782
525.0805563360663,-77.70503189806527
533.4670174722581,-77.7049980692168
541.85347860845,-77.70501228706182
550.2399397446419,-77.7050365996585
558.6264008808338,-77.70504768635543
567.0128620170257,-77.70506875098668
575.3993231532176,-77.70507571836009
583.7857842894094,-77.70507075427336
592.1722454256013,-77.7050751254889
600.5587065617932,-77.70506016025857
608.9451676979851,-77.70504314042093
617.331628834177,-77.70505611622072
625.7180899703689,-77.70505819430804
634.1045511065607,-77.70504143904498
642.4910122427526,-77.70504272835959
650.8774733789445,-77.7050409970816
659.2639345151364,-77.70503250869524
667.6503956513283,-77.70504184428975
676.0368567875202,-77.70504166306593
684.423317923712,-77.70502602576173
692.8097790599039,-77.705032749713
700.0,-77.70504190586657
700.0,-77.70504190586657
700.0000521228095,-77.70504190576584
700.0001355764348,-77.70504190560455
700.0003155794074,-77.70504190525659
700.0004955823799,-77.7050419049086
700.0008613518955,-77.70504190420131
700.0012271214111,-77.70504190349384
700.002131991608,-77.70504190174269
700.003036861805,-77.70504189999023
700.0039417320019,-77.70504189823646
700.0048466021988,-77.70504189648138
700.0062638655456,-77.70504189372981
700.0076811288925,-77.70504189097504
700.0090983922394,-77.70504188821707
700.0114612752036,-77.70504188361187
700.0138241581678,-77.70504187899789
700.0175321321605,-77.70504187173978
700.0212401061531,-77.70504186446034
700.027637654671,-77.70504185185106
700.034035203189,-77.70504183917905
700.0404327517069,-77.70504182644174
700.0468303002249,-77.70504181362561
700.0532278487428,-77.70504180068154
700.0636216560459,-77.70504177863667
700.074015463349,-77.70504175221326
700.0844092706521,-77.7050417114587
700.1003581767756,-77.70504154803926
700.116307082899,-77.7050410276628
700.1322559890224,-77.705039579225
700.1615814867364,-77.70502998313096
700.1909069844504,-77.70499894295122
700.2202324821644,-77.70492342024022
700.2495579798784,-77.70477142211904
700.2788834775924,-77.70450531801069
700.3082089753065,-77.70408630507363
700.3553433549005,-77.70300246047852
700.4024777344945,-77.70129508931848
700.4496121140885,-77.69885052129949
700.4967464936825,-77.69557990798265
700.5438808732765,-77.691415893365
700.6222503069565,-77.68237977673084
700.7420026655367,-77.66316699849102
700.8617550241169,-77.63719444790335
700.981507382697,-77.60438136368171
701.1012597412772,-77.56469070638215
701.2210120998574,-77.51810453165673
701.3407644584375,-77.4646449314541
701.4605168170177,-77.40437144548694
701.6580359606731,-77.29025023151894
701.7915347571596,-77.2028978566701
701.8249094562813,-77.17978414278367
701.8582841554029,-77.15616161786016
701.8916588545245,-77.1320312771667
701.9250335536461,-77.10739414922037
701.9584082527678,-77.08225110311143
701.9917829518894,-77.05660276202397
702.025157651011,-77.03044947627367
702.0585323501326,-77.00379128278823
702.0790908056359,-76.98711869361404
702.0996492611392,-76.97025422149618
702.1202077166425,-76.95319759464336
702.1407661721458,-76.93594843028156
702.1513070297267,-76.92702950513515
702.1584228316639,-76.92097988283473
702.165538633601,-76.91490706396561
702.1726544355382,-76.90881101519848
702.1797702374754,-76.90269169981057
702.1868860394126,-76.89654907723838
702.1940018413497,-76.89038310260551
702.2011176432869,-76.88419372619754
702.2082334452241,-76.8779808928406
702.2153492471613,-76.87174454115124
702.2224650490984,-76.86548460263224
702.2295808510356,-76.85920100058648
702.2366966529728,-76.85289364881618
702.2476860711007,-76.84310588284488
702.2586754892286,-76.83326081299083
702.2696649073565,-76.82335792515715
702.2806543254844,-76.81339658887352
702.2916437436123,-76.80337603026723
702.3026331617402,-76.79329530397145
702.3136225798681,-76.78315326541646
702.324611997996,-76.77294854579846
702.335601416124,-76.76267953214112
702.3465908342519,-76.75234435428173
702.3575802523798,-76.74194087972236
702.3685696705077,-76.73146671644044
702.3795590886356,-76.7209192231227
702.3905485067635,-76.71029552588806
702.4015379248914,-76.69959254033984
702.4125273430193,-76.68880699767489
702.4235167611472,-76.67793547353905
702.4345061792751,-76.66697441834991
702.445495597403,-76.65592018790346
702.4564850155309,-76.64476907322504
702.4674744336588,-76.6335173287911
702.4784638517867,-76.62216119841149
702.4894532699146,-76.61069693820662
702.5004426880425,-76.59912083623833
702.5114321061704,-76.58742922845688
702.5224215242984,-76.57561851071002
702.5334109424263,-76.56368514662074
702.5444003605542,-76.55162567117628
702.5553897786821,-76.5394366898767
702.56637919681,-76.52711487326968
702.5773686149379,-76.51465694664378
702.5954552275549,-76.49384851105573
702.607983610946,-76.4792059178284
702.6205119943371,-76.46437050910565
702.6330403777282,-76.44933732984305
702.6455687611193,-76.43410119864484
702.6580971445104,-76.41865658773224
702.6706255279015,-76.40299747310897
702.6831539112926,-76.38711715346095
702.6956822946837,-76.37100803726979
702.7082106780748,-76.35466140166231
702.7207390614659,-76.33806713386598
702.733267444857,-76.32121347534574
702.7457958282481,-76.30408679709929
702.7583242116392,-76.28667143872379
702.7708525950303,-76.26894964069787
702.7833809784214,-76.25090158805308
702.7959093618125,-76.23250556689173
702.8084377452036,-76.21373821847881
702.8209661285947,-76.19457486451729
702.8334945119858,-76.17498987449468
702.8460228953769,-76.15495705029804
702.858551278768,-76.13445001046283
702.8710796621591,-76.11344256240298
702.8836080455502,-76.09190905410894
702.8961364289413,-76.06982469790253
702.9086648123324,-76.04716585955704
702.9211931957235,-76.02391030733892
702.9337215791146,-76.00003741716853
702.9525639601583,-75.96292983043188
702.9714063412019,-75.92432757626923
702.9902487222456,-75.88418449754944
703.0090911032893,-75.8424644991182
703.027933484333,-75.79914113808087
703.0467758653766,-75.75419686018122
703.0656182464203,-75.70762217483652
703.084460627464,-75.65941488573587
703.1033030085076,-75.60957932852753
703.1221453895513,-75.55812556941223
703.140987770595,-75.5050685916031
703.1598301516386,-75.45042751494347
703.1786725326823,-75.39422485518806
703.197514913726,-75.33648579936603
703.2163572947696,-75.27723748151142
703.2351996758133,-75.21650826650617
703.254042056857,-75.15432706245645
703.2728844379006,-75.09072268058274
703.2917268189443,-75.02572325474495
703.310569199988,-74.95935572644314
703.3294115810316,-74.89164539791238
703.3482539620753,-74.82261555652322
703.367096343119,-74.75228717494875
703.3859387241627,-74.68067868836448
703.4047811052063,-74.60780584280995
703.42362348625,-74.53368160479076
703.4424658672937,-74.45831612497247
703.4613082483373,-74.38171675267357
703.480150629381,-74.30388809574654
703.4989930104247,-74.22483211457177
703.5178353914683,-74.14454823703589
703.536677772512,-74.06303348450922
703.5555201535557,-73.98028260002656
703.5743625345993,-73.8962881658582
703.593204915643,-73.81104069418801
703.6120472966867,-73.72452867716444
703.6308896777304,-73.63673858823951
703.6632240457463,-73.48306221207493
703.6955584137623,-73.32548096376942
703.7278927817783,-73.16387979240359
703.7602271497943,-72.99812062922236
703.7925615178103,-72.8280421624334
703.8248958858263,-72.65346436848219
703.8572302538423,-72.47419989010943
703.8895646218583,-72.29007226089453
703.9218989898743,-72.10093798123569
703.9542333578903,-71.90670700970256
703.9865677259063,-71.70735644591036
704.0,-71.62304656475578
704.0,-71.62304656475578
704.0000521218896,-71.62271771225873
704.0001356163577,-71.62219088726563
704.0003162004328,-71.62105129902086
704.000496784508,-71.61991155377609
704.000862697807,-71.61760168490645
704.001228611106,-71.6152912432472
704.0021317424876,-71.60958597008288
704.0030348738692,-71.60387682336679
704.0039380052508,-71.59816377323364
704.0048411366324,-71.59244681149266
704.0062581373006,-71.58346909318396
704.0076751379688,-71.57448175137438
704.009092138637,-71.56548479560544
704.0114574059969,-71.55044563414235
704.0138226733568,-71.53537977102826
704.0175389790834,-71.51165449643129
704.02125528481,-71.48786364462909
704.0277077014302,-71.44640186206314
704.0341601180505,-71.40474444702807
704.0406125346708,-71.36289280607406
704.0470649512911,-71.32084844886506
704.0535173679114,-71.27861297744865
704.0640651311179,-71.20916360829771
704.0746128943244,-71.13921595790922
704.085160657531,-71.06877836966552
704.1012335502477,-70.96052230042508
704.1173064429644,-70.85118269902244
704.1333793356811,-70.74079511467022
704.1494522283978,-70.62939719597455
704.1655251211145,-70.51702833470728
704.1815980138311,-70.40372930225779
704.1976709065478,-70.28954190791423
704.2230574016985,-70.10748100609483
704.2484438968492,-69.92347805316054
704.2738303919998,-69.73769989879037
704.2992168871505,-69.55030876997834
704.3246033823011,-69.36146010216923
704.3499898774518,-69.17130153234118
704.3753763726024,-68.97997237083409
704.4007628677531,-68.78760315494699
704.4261493629037,-68.59431537993103
704.4515358580544,-68.4002215489836
704.476922353205,-68.20542547629812
704.5023088483557,-68.01002269591565
704.5276953435064,-67.81410089668947
704.553081838657,-67.61774036187423
704.5784683338077,-67.42101440773241
704.6038548289583,-67.22398983312863
704.629241324109,-67.02672739009449
704.6546278192596,-66.82928224177074
704.6984871809834,-66.48787652146332
704.7423465427072,-66.1462964732964
704.786205904431,-65.80472602227226
704.8300652661547,-65.46331192347867
704.8739246278785,-65.12216472758102
704.9177839896023,-64.78135738776223
704.9894813566242,-64.22502916219302
705.0611787236461,-63.66954124187923
705.132876090668,-63.114384855364534
705.2045734576899,-62.558617827753224
705.2762708247118,-62.00083459785252
705.3479681917337,-61.439194766176456
705.3968223348197,-61.05317459504802
705.4456764779057,-60.6636194572331
705.4945306209918,-60.26981423222885
705.5433847640778,-59.87109817773338
705.5922389071638,-59.46689710280734
705.6410930502499,-59.05674144824655
705.6899471933359,-58.6402633905053
705.738801336422,-58.217171253923915
705.787655479508,-57.78720808578073
705.836509622594,-57.35010861662604
705.88536376568,-56.9055699615115
705.9342179087661,-56.45324561837615
705.9830720518521,-55.992763031871206
706.0319261949381,-55.523756214492145
706.0807803380242,-55.04589968970448
706.1296344811102,-54.55893078758373
706.1784886241962,-54.062654229796316
706.2273427672823,-53.55693154423051
706.2761969103683,-53.04166172067983
706.3250510534543,-52.516756743803256
706.3739051965404,-51.98211090392454
706.4227593396264,-51.437561711368076
706.4716134827124,-50.882843299835635
706.5204676257985,-50.317536700470754
706.5693217688845,-49.741022699236105
706.6181759119705,-49.15244249395531
706.6670300550566,-48.55067145590057
706.7158841981426,-47.934307503458164
706.7647383412286,-47.30167496724705
706.8135924843147,-46.65084376882415
706.8624466274007,-45.97966312516282
706.9113007704867,-45.28581037958204
706.9601549135728,-44.566856788369705
707.0090090566588,-43.82035226147848
707.0578631997448,-43.043931725513495
707.1321579702953,-41.80116244262404
707.2064527408459,-40.478677382074494
707.2807475113964,-39.074299177436956
707.3550422819469,-37.591309825700186
707.4293370524974,-36.03976444299399
707.503631823048,-34.437438657552654
707.5779265935985,-32.81053983029789
707.652221364149,-31.19408082785426
707.7265161346995,-29.629936459177884
707.80081090525,-28.16126334237038
707.8751056758006,-26.824563454330175
707.9494004463511,-25.644930193762523
708.0236952169016,-24.636140224830296
708.0979899874521,-23.802459956529752
708.1722847580027,-23.138558638717203
708.2465795285532,-22.631231407589308
708.3617400961488,-22.117864245238408
708.4769006637443,-21.879632525918822
708.5920612313399,-21.85914077041886
708.7072217989355,-22.00899910708834
708.8223823665311,-22.287715731279313
709.0011625225208,-22.89426953534549
709.1799426785104,-23.6266432198637
709.3587228345001,-24.420381827541128
709.5375029904898,-25.230414509495343
709.7162831464794,-26.029393163122503
709.8950633024691,-26.80132633158515
710.0738434584588,-27.53770411553805
710.3621337891843,-28.63722373523862
710.6504241199099,-29.63052253717291
710.9387144506354,-30.53572442084218
711.227004781361,-31.365868102615607
711.5152951120865,-32.135406226184436
711.803585442812,-32.85390246188931
712.0918757735376,-33.532656384707316
712.3801661042631,-34.18025304058135
712.8326069134179,-35.15347270453652
713.2850477225726,-36.091469080972495
713.7374885317273,-37.011951767968675
714.189929340882,-37.92696161296496
714.6423701500368,-38.848322110185826
715.0948109591915,-39.781790360192765
715.5472517683462,-40.732431723531256
715.9996925775009,-41.70016284183868
716.4521333866556,-42.684280884904716
716.9045741958104,-43.67974674951911
717.3570150049651,-44.68127767506313
717.8094558141198,-45.68184603846951
718.2618966232745,-46.67499128412678
718.7143374324293,-47.654864690604576
719.166778241584,-48.616572025620634
719.6192190507387,-49.5562900810126
720.0716598598934,-50.47120393523065
720.5241006690482,-51.359374019915535
720.9765414782029,-52.2196065998531
721.4289822873576,-53.05127986076716
721.8814230965123,-53.854174588016704
722.333863905667,-54.628362560080056
722.7863047148218,-55.374140294953214
723.5005905102416,-56.49496561044676
724.2148763056615,-57.548732097703436
724.9291621010814,-58.538365152409646
725.6434478965012,-59.46717279704566
726.8826475549689,-60.944749380294894
728.1218472134366,-62.26841684336967
729.3610468719043,-63.456235314877944
730.6002465303719,-64.52515491922948
731.8394461888396,-65.49051905411554
733.0786458473073,-66.36589076314168
734.3178455057749,-67.16308284041395
735.5570451642426,-67.8922816634511
736.7962448227103,-68.5622053222568
738.0354444811779,-69.18027144695728
740.067169350051,-70.0972459990712
742.0988942189241,-70.91374914026714
744.1306190877972,-71.64700821597062
746.1623439566703,-72.30969977916165
749.4657503409345,-73.26143310584776
752.7691567251987,-74.08287019263155
756.072563109463,-74.79471084142698
759.3759694937272,-75.41291291994922
762.6793758779914,-75.9502478248588
765.9827822622557,-76.41676870857701
771.5361340914488,-77.06346416936097
777.089485920642,-77.5634130508936
782.6428377498352,-77.94132883772163
788.1961895790283,-78.21907280177894
793.7495414082215,-78.41568955205145
799.3028932374147,-78.547207134011
808.1672281699779,-78.65494070904334
817.0315631025411,-78.67438343389092
825.8958980351043,-78.63811903495375
834.7602329676675,-78.56996848052238
843.6245679002308,-78.48654527089589
852.488902832794,-78.39877961962694
861.3532377653572,-78.31334332095533
870.2175726979204,-78.23400122796727
879.0819076304837,-78.16264902154042
887.9462425630469,-78.09991818017559
901.5511741347108,-78.02016166289779
915.1561057063747,-77.95821621265222
928.7610372780385,-77.9105911711167
942.3659688497024,-77.87390978596308
955.9709004213663,-77.84558815926601
976.6266499168837,-77.81433189442322
997.2823994124011,-77.79237445362416
999.9999999999778,-77.78998127475931
1000.0000000000111,-77.78998127475931
1000.0000000000111,-77.78998127475931
