time,voltage
0.0,-80.0
0.0002974175137109674,-80.00258235134326
0.0012833651622626298,-80.00951605601072
0.0037107132601466716,-80.02195330257952
0.007762052355292084,-80.0371127725014
0.013929417166427881,-80.05450395343037
0.02009678197756368,-80.06876890685034
0.03113497087334198,-80.09024078301296
0.04870838547641941,-80.11747249842861
0.08181318611365976,-80.15664916279955
0.11491798675090009,-80.18625627508658
0.14802278738814043,-80.21097890788508
0.18112758802538076,-80.23274880463102
0.23708484270521057,-80.26531888244675
0.2930420973850404,-80.2935975337808
0.3489993520648702,-80.31872847023327
0.44602366018927114,-80.35733226171003
0.5430479683136721,-80.39099661439563
0.6991017189300922,-80.43813230659391
0.8551554695465123,-80.47942673375178
1.1357641313623266,-80.54474319829488
1.416372793178141,-80.60401780194964
1.6969814549939553,-80.65990028668459
1.9775901168097696,-80.71311108811531
2.2581987786255837,-80.76399347411429
2.7518280155659696,-80.84883798102555
3.5021177756566497,-80.968775284714
4.25240753574733,-81.08018958076288
5.00269729583801,-81.1843177232869
5.75298705592869,-81.2817464775656
6.503276816019371,-81.37294690025526
7.72904922766045,-81.50966655513355
8.95482163930153,-81.63259308240265
10.18059405094261,-81.74309696638787
12.099743943667297,-81.89381500355559
14.018893836391985,-82.02066940765889
15.938043729116673,-82.12702390525367
19.158500294052,-82.26744172423841
22.37895685898733,-82.37012530307418
25.59941342392266,-82.44444088108699
28.819869988857988,-82.4977818981638
32.040326553793314,-82.53589871189958
35.26078311872864,-82.56320064891801
40.207490136620414,-82.5916000569745
45.15419715451219,-82.61081743319906
50.100904172403965,-82.62602795826933
55.04761119029574,-82.64031438871808
63.38577674689732,-82.6663280418479
71.7239423034989,-82.69670295033612
80.06210786010048,-82.73148831669864
88.40027341670206,-82.76878564178374
96.73843897330364,-82.80578587557667
105.07660452990523,-82.83998856558748
113.4147700865068,-82.87005057863084
121.75293564310839,-82.89569197736763
130.09110119970995,-82.91681382083287
138.42926675631153,-82.93331417453516
146.76743231291312,-82.945413476338
155.1055978695147,-82.95373783341583
163.44376342611628,-82.95902254996378
171.78192898271786,-82.96193146653432
180.12009453931944,-82.9629356225105
188.45826009592102,-82.96245645684596
196.7964256525226,-82.96094382659668
205.13459120912418,-82.95882997165964
213.47275676572576,-82.9563866075152
221.81092232232734,-82.95380306220387
230.14908787892892,-82.95118353801139
238.4872534355305,-82.94865442050029
246.8254189921321,-82.94632360245647
255.16358454873367,-82.94423721858529
263.50175010533525,-82.9423534992489
271.8399156619368,-82.94066918869594
280.17808121853835,-82.93918408275819
288.5162467751399,-82.93792737337796
296.85441233174146,-82.93686738380423
305.192577888343,-82.9359732672082
313.53074344494456,-82.93520170010952
321.8689090015461,-82.93456964089695
330.20707455814767,-82.9340489350924
338.5452401147492,-82.93363648170977
346.8834056713508,-82.93328707082352
355.2215712279523,-82.93300635386954
363.5597367845539,-82.93276799697216
371.89790234115543,-82.9325944152994
380.236067897757,-82.93244480925503
388.57423345435853,-82.93233535089377
396.9123990109601,-82.93223217611799
405.25056456756164,-82.93216473790916
413.5887301241632,-82.93209771593108
421.92689568076474,-82.9320633704703
430.2650612373663,-82.9320171427118
438.60322679396785,-82.93199755540657
446.9413923505694,-82.93196344074605
455.27955790717095,-82.9319585695527
463.6177234637725,-82.93193271372742
471.95588902037406,-82.93193622293276
480.2940545769756,-82.93191328889904
488.63222013357716,-82.9319216377636
496.9703856901787,-82.93190129600876
505.30855124678027,-82.9319154988233
513.6467168033819,-82.93189438646142
521.9848823599834,-82.93191179088382
530.323047916585,-82.93188991802923
538.6612134731865,-82.93191052194737
546.9993790297881,-82.93188714403479
555.3375445863896,-82.93191146141193
563.6757101429912,-82.93188475123577
572.0138756995927,-82.9319121992727
580.3520412561943,-82.93188304481818
588.6902068127959,-82.93191375650022
597.0283723693974,-82.93188069011264
605.366537925999,-82.93191560740549
613.7047034826005,-82.93187778396565
622.0428690392021,-82.93191671045963
630.3810345958036,-82.9318745360355
638.7192001524052,-82.93191775955799
647.0573657090067,-82.93195148052948
655.3955312656083,-82.93203166650602
663.7336968222098,-82.93197098469163
672.0718623788114,-82.93196337731615
680.4100279354129,-82.93190792823366
688.7481934920145,-82.93194349450557
697.086359048616,-82.9318986885618
700.0,-82.93187109532138
700.0,-82.93187109532138
700.0000524415714,-82.91597956528682
700.000136594133,-82.89136811076996
700.0003184397774,-82.8410316338313
700.0005002854218,-82.79313332510196
700.0008692335723,-82.70169733144978
700.0012381817228,-82.61694446384227
700.0021507551475,-82.4307978237302
700.0030633285721,-82.27122994160614
700.0039759019968,-82.13073645152468
700.0048884754215,-82.00404901804039
700.0063188189638,-81.82417596527273
700.0077491625061,-81.66213419642358
700.0091795060484,-81.51325269079159
700.0115682955883,-81.28518075792375
700.0139570851281,-81.07823009941536
700.0177087865976,-80.78531506450058
700.0214604880671,-80.52253971457543
700.0279305314267,-80.12101419004453
700.0344005747863,-79.76519030285534
700.040870618146,-79.44217438875508
700.0473406615056,-79.14503779603503
700.0538107048652,-78.86905970593942
700.0643179232078,-78.45728618147815
700.0748251415504,-78.08025949910866
700.085332359893,-77.72992629958459
700.1014523863736,-77.23344620484845
700.1175724128542,-76.77612566965824
700.1336924393348,-76.35016459208205
700.1633184039396,-75.63088867487659
700.1929443685443,-74.97712841749306
700.2225703331491,-74.37627959810601
700.2521962977538,-73.8177220294921
700.2818222623586,-73.29285140766663
700.3114482269633,-72.79599347731288
700.35922579572,-72.04425357287303
700.4070033644767,-71.34400442517587
700.4547809332335,-70.68638505923522
700.5025585019902,-70.06384685825441
700.5503360707469,-69.47046732365452
700.6298010828762,-68.5364870943608
700.7508903583716,-67.21080284516886
700.8719796338671,-65.97267990342733
700.9930689093626,-64.79919326469212
701.1141581848581,-63.67190091006566
701.2352474603535,-62.576126203900586
701.356336735849,-61.50057373103223
701.4774260113445,-60.435706027291445
701.677566742033,-58.667143768824026
701.8170942815923,-57.393323654939365
701.8519761664821,-57.06345019037094
701.886858051372,-56.72543385781172
701.9217399362618,-56.376793195479976
701.9566218211517,-56.014826229492016
701.9915037060415,-55.63484059693488
702.0263855909313,-55.22871802681546
702.0612674758212,-54.782688849065416
702.096149360711,-54.27341017565704
702.1180224348085,-53.90219555831529
702.139895508906,-53.46232546493154
702.1550105902272,-53.09546516906263
702.1701256715485,-52.64799597229726
702.1852407528697,-52.07746897898423
702.1946940411822,-51.63146451135051
702.2041473294946,-51.09593672687278
702.2136006178071,-50.45812295533519
702.2230539061195,-49.71827607772448
702.2289275420492,-49.21502235510096
702.2348011779789,-48.68890515452966
702.2406748139085,-48.148501243405036
702.2465484498382,-47.59989780753254
702.2524220857679,-47.04752999608645
702.2582957216976,-46.49530009891609
702.2641693576272,-45.946474728935264
702.2700429935569,-45.403024183083346
702.2759166294866,-44.86594789454147
702.2817902654162,-44.336043797743955
702.2911137174295,-43.511692217125656
702.3004371694428,-42.70947607354251
702.3097606214561,-41.93008314983973
702.3190840734694,-41.173828124743835
702.3284075254827,-40.44098735181951
702.337730977496,-39.731341025326635
702.3519729631247,-38.69027021170383
702.3662149487534,-37.69715250039288
702.3804569343821,-36.74680451254906
702.3946989200108,-35.83277093965656
702.4089409056395,-34.94727668539116
702.4307235337785,-33.62604501732974
702.4525061619175,-32.31073322470395
702.4742887900566,-30.95421542437699
702.4960714181956,-29.49777028169209
702.5178540463346,-27.85977236159185
702.5396366744736,-25.93245952649851
702.5614193026126,-23.551585834513933
702.5832019307517,-20.477687794648464
702.6049845588907,-16.359072854829435
702.6267671870297,-10.723011327907898
702.6485498151687,-3.1762448520608055
702.660621872788,1.6779914066443533
702.6726939304074,6.678279418203587
702.6847659880267,11.460611649770469
702.696838045646,15.672267091502524
702.7089101032653,19.06652747642739
702.7209821608847,21.597908855009496
702.733054218504,23.348021512761935
702.7451262761233,24.444637261978922
702.7571983337426,25.02294378885812
702.7692703913619,25.206436057599188
702.7813424489813,25.094062875206838
702.7934145066006,24.759732091739192
702.8054865642199,24.257750807127234
702.8175586218392,23.627703766383785
702.8296306794585,22.899541889781084
702.8417027370779,22.097138837595725
702.8537747946972,21.239376642299383
702.8658468523165,20.341007019354294
702.8779189099358,19.413665062346666
702.8899909675551,18.466443124207917
702.9020630251745,17.506488236701802
702.9141350827938,16.539568609732076
702.9262071404131,15.570324632137055
702.9382791980324,14.602489860725822
702.9565998471322,13.143061655042679
702.974920496232,11.702410999448603
702.9932411453318,10.28613906095128
703.0115617944316,8.899025377554338
703.0298824435314,7.544443079131583
703.0482030926312,6.223771964284891
703.066523741731,4.937643806184655
703.0848443908308,3.6858235813475027
703.1031650399306,2.4670752147255786
703.1214856890304,1.2797649842386873
703.1398063381301,0.1218912486087436
703.1581269872299,-1.00884826363892
703.1764476363297,-2.1147947168246035
703.1947682854295,-3.1982783276207067
703.2130889345293,-4.261606323459088
703.2314095836291,-5.307033169586712
703.2497302327289,-6.336744826945433
703.2680508818287,-7.3528548070547
703.2863715309285,-8.357414518511714
703.3046921800283,-9.352430533821964
703.3230128291281,-10.339895498649053
703.3413334782279,-11.321732816610773
703.3596541273276,-12.299879244386359
703.3779747764274,-13.276234965114522
703.3962954255272,-14.252666553144461
703.414616074627,-15.230957872475186
703.4329367237268,-16.212820362474332
703.4512573728266,-17.199848363152483
703.4695780219264,-18.19349682826539
703.4878986710262,-19.19500973833975
703.506219320126,-20.205371146093395
703.5245399692258,-21.22521313926622
703.5428606183256,-22.25473814301402
703.5611812674254,-23.29360350124218
703.5795019165251,-24.34082850806181
703.5978225656249,-25.394684842043503
703.6161432147247,-26.452629185467767
703.6344638638245,-27.511250116313914
703.6638035266494,-29.196970852624954
703.6931431894743,-30.85184328723482
703.7224828522992,-32.451615941511626
703.7518225151241,-33.97090187788083
703.781162177949,-35.388055318469384
703.8105018407739,-36.68731472428492
703.8398415035988,-37.86082954627195
703.8691811664237,-38.907692214951865
703.8985208292486,-39.83326973627563
703.9278604920735,-40.64708407931748
703.9572001548984,-41.361078786428976
703.9865398177233,-41.98779107243016
704.0,-42.24943095378966
704.0,-42.24943095378966
704.0000524422073,-42.26629503057907
704.0001366407344,-42.29243910574179
704.0003191060822,-42.34605581989938
704.00050157143,-42.397061164475375
704.0008706838396,-42.494113533735984
704.0012397962491,-42.58403157673902
704.0021506473157,-42.780909030032234
704.0030614983823,-42.94948097388836
704.0039723494489,-43.09771508466204
704.0048832005155,-43.23121087119473
704.0063137540619,-43.42082131628961
704.0077443076084,-43.59125043099497
704.0091748611549,-43.74748956460949
704.0115666006267,-43.986436073417664
704.0139583400985,-44.202499983732636
704.0177195432094,-44.50746487142244
704.0214807463203,-44.77981946163197
704.0280123056806,-45.196568793752384
704.0345438650409,-45.56383678892514
704.0410754244011,-45.89577022823736
704.0476069837614,-46.19982675538751
704.0541385431217,-46.48100055665337
704.0648105304695,-46.90044162515571
704.0754825178172,-47.281399357688386
704.086154505165,-47.632510568416485
704.1024222980689,-48.121737640582744
704.1186900909727,-48.566398417609165
704.1349578838765,-48.97472449561744
704.1596723923941,-49.538647530572646
704.1843869009117,-50.04641644206436
704.2091014094293,-50.50787595144786
704.2338159179469,-50.93100647920375
704.2585304264645,-51.322175711990184
704.2832449349821,-51.6860640925242
704.3079594434997,-52.02616741422084
704.3326739520173,-52.34534247828342
704.3573884605349,-52.646063499057306
704.3821029690525,-52.93043864644106
704.4068174775701,-53.200227559688
704.4315319860877,-53.45690754822197
704.4562464946054,-53.701746467524416
704.480961003123,-53.93584500185929
704.5056755116406,-54.16015999446873
704.5303900201582,-54.37552371981924
704.5551045286758,-54.58266387690124
704.5923505883609,-54.88070057309326
704.629596648046,-55.16338516213868
704.6668427077311,-55.432278718466826
704.7040887674162,-55.68870673273835
704.7413348271014,-55.93380157393047
704.7785808867865,-56.16853168630571
704.8158269464716,-56.39372964301329
704.8530730061567,-56.61011660229199
704.9117037665744,-56.93438417616998
704.9703345269921,-57.24040852042148
705.0289652874098,-57.52983352276852
705.0875960478276,-57.80399655827446
705.1462268082453,-58.063989456865464
705.204857568663,-58.31069927598986
705.2634883290807,-58.5448458082582
705.3221190894984,-58.76701482999544
705.3807498499161,-58.97771857850158
705.4393806103338,-59.17744014811946
705.4794924675255,-59.30799141735436
705.5196043247171,-59.43377620029999
705.5597161819087,-59.55495816185123
705.5998280391003,-59.67170700236554
705.6399398962919,-59.78419697538992
705.7035268248256,-59.95422690925797
705.7671137533594,-60.11470352695096
705.8307006818931,-60.266267085581916
705.8942876104268,-60.40952023744498
705.9578745389605,-60.54503083470507
706.0214614674942,-60.67328240937787
706.0850483960279,-60.79470888598836
706.1486353245616,-60.909755974985146
706.2122222530953,-61.01888437699792
706.275809181629,-61.12256078395754
706.3393961101627,-61.22123496152522
706.4029830386964,-61.31532461700845
706.4665699672302,-61.405215025518935
706.5301568957639,-61.491264301864916
706.5937438242976,-61.57380379932326
706.6573307528313,-61.6531322716673
706.720917681365,-61.729509296215134
706.7845046098987,-61.803152485733115
706.8480915384324,-61.874238659115974
706.9116784669661,-61.94290749861678
706.9752653954998,-62.00926698735839
707.0388523240335,-62.07340031905713
707.1024392525673,-62.13537304015015
707.166026181101,-62.19523970423717
707.2296131096347,-62.25304931447688
707.2932000381684,-62.308849513885484
707.3567869667021,-62.36268955429479
707.4203738952358,-62.414622166635425
707.4839608237695,-62.464704624921985
707.5475477523032,-62.51299936153507
707.6111346808369,-62.55957420816151
707.6747216093706,-62.60450205741768
707.7383085379043,-62.647859850340176
707.801895466438,-62.689727235353004
707.8654823949718,-62.730185488273285
707.9290693235055,-62.76931701416014
707.9926562520392,-62.80720522147342
708.0562431805729,-62.843934270185954
708.1556870148156,-62.89925087796217
708.2551308490583,-62.9522523370728
708.354574683301,-63.00323634431181
708.4540185175438,-63.05247405547482
708.6116764971719,-63.12753758550915
708.7693344767999,-63.199614727689976
708.926992456428,-63.26933674236864
709.0846504360561,-63.33720872195251
709.2423084156842,-63.40364812286989
709.3999663953123,-63.468996902772204
709.5576243749404,-63.533526198905065
709.7152823545684,-63.59745514159426
709.8729403341965,-63.66097115332752
710.0305983138246,-63.724234743919716
710.1882562934527,-63.787373351691684
710.3459142730808,-63.85048672018494
710.5035722527089,-63.913659996838724
710.661230232337,-63.97696877560616
710.818888211965,-64.04047008276292
710.9765461915931,-64.10420203777552
711.2174211585567,-64.20209080372517
711.4582961255203,-64.30067826144743
711.6991710924839,-64.40002585438056
711.9400460594475,-64.50014934505232
712.3318839271052,-64.66470446980522
712.7237217947629,-64.83131336129932
713.1155596624207,-64.9998860034694
713.5073975300784,-65.17034796151879
713.8992353977361,-65.34268140134594
714.5300107601327,-65.62432439200667
715.1607861225292,-65.91158422289293
715.7915614849258,-66.20488493065002
716.4223368473223,-66.50442097222943
717.0531122097188,-66.81039067152501
717.6838875721154,-67.1224936080398
718.314662934512,-67.44024379867054
718.9454382969085,-67.76240979135488
719.576213659305,-68.08818688327332
720.2069890217016,-68.41597801214685
720.8377643840981,-68.74532495210283
721.4685397464947,-69.07436478466424
722.0993151088912,-69.40290612631483
722.7300904712878,-69.729858493705
723.3608658336843,-70.05540351277256
723.9916411960809,-70.37764950113419
724.6224165584774,-70.6974539680135
725.253191920874,-71.01248434093088
725.8839672832705,-71.32467048028055
726.5147426456671,-71.63233601564039
727.1455180080636,-71.93478617374187
727.7762933704602,-72.23213856878277
728.4070687328567,-72.52487124964445
729.0378440952533,-72.81256067373755
729.6686194576498,-73.09521984092503
730.2993948200464,-73.37217907217206
730.9301701824429,-73.64382015458759
731.5609455448395,-73.90992042097163
732.191720907236,-74.17086627450668
732.8224962696326,-74.42610134182219
733.4532716320291,-74.67612532701092
734.0840469944256,-74.92060198127854
734.7148223568222,-75.15994979815343
735.3455977192187,-75.39379625074943
735.9763730816153,-75.62263455185928
736.6071484440118,-75.84616109692958
737.2379238064084,-76.06476001181152
737.8686991688049,-76.27821749212796
738.4994745312015,-76.48690020207252
739.130249893598,-76.69063351686817
739.7610252559946,-76.88971714933996
740.3918006183911,-77.08406203387368
741.3653528359197,-77.37517688875403
742.3389050534482,-77.65575579167148
743.3124572709768,-77.92604622243127
745.1728181566766,-78.4152645262468
747.9714348504777,-79.08776681808378
750.7700515442789,-79.69048323757234
755.2797749636409,-80.53170591936798
759.7894983830029,-81.23438036615646
764.2992218023649,-81.82031635643798
768.8089452217268,-82.30713924707607
773.3186686410888,-82.70920221588062
777.8283920604508,-83.03866432940106
782.3381154798128,-83.3060817233825
789.330880647777,-83.61913624440675
796.3236458157412,-83.8328372970771
803.3164109837054,-83.96912530708613
810.3091761516696,-84.04556274890564
817.3019413196338,-84.07651654459913
824.294706487598,-84.07372051538356
835.2130649211617,-84.02378553860878
846.1314233547255,-83.94102823822949
857.0497817882892,-83.84314669695218
867.968140221853,-83.74176954627835
878.8864986554167,-83.64417143289874
889.8048570889805,-83.5544571425475
900.7232155225443,-83.47448169717566
911.641573956108,-83.40459371480001
922.5599323896718,-83.34432105671205
933.4782908232355,-83.29279230976354
949.8956355636003,-83.22947267453577
966.3129803039651,-83.18000807595307
982.7303250443299,-83.14130006406968
999.1476697846947,-83.1109473074795
999.9999999999778,-83.10955407636057
1000.0000000000111,-83.10955407636057
1000.0000000000111,-83.10955407636057
