time,voltage
0.0,6.5e-05
0.000296636813297951,6.500000000114671e-05
0.0012788484127527024,6.500000000494385e-05
0.0036964872454988904,6.500000001429077e-05
0.007729556304279564,6.500000002988402e-05
0.01386763821850983,6.500000005361713e-05
0.020005720132740098,6.500000007735062e-05
0.030991625165715228,6.50000001198297e-05
0.048477316780374785,6.500000018744051e-05
0.08142760109044733,6.500000031484129e-05
0.11437788540051988,6.500000044222061e-05
0.14732816971059243,6.500000056957848e-05
0.18027845402066497,6.500000069690852e-05
0.23596465317956994,6.500000091201456e-05
0.2916508523384749,6.500000112700837e-05
0.3473370514973798,6.500000134187605e-05
0.44383609901078586,6.50000017138757e-05
0.5403351465241919,6.500000208541147e-05
0.6955058379007575,6.500000268176388e-05
0.8506765292773231,6.500000327670182e-05
1.12975493004387,6.500000434279508e-05
1.408833330810417,6.500000540337911e-05
1.687911731576964,6.500000645814506e-05
1.966990132343511,6.500000750668671e-05
2.246068533110058,6.500000854876523e-05
2.7364610928787654,6.500001036369223e-05
3.482468650147816,6.500001308313273e-05
4.2284762074168665,6.500001575055191e-05
4.9744837646859175,6.5000018364098e-05
5.7204913219549685,6.500002092297082e-05
6.4664988792240194,6.500002342705575e-05
7.686537229119633,6.500002740580157e-05
8.906575579015247,6.500003124285422e-05
10.12661392891086,6.500003494310593e-05
12.036342014388842,6.500004047683333e-05
13.946070099866823,6.500004571953954e-05
15.855798185344804,6.500005070002952e-05
19.067769644361572,6.500005856360575e-05
22.27974110337834,6.500006589917896e-05
25.491712562395104,6.500007281394291e-05
28.70368402141187,6.500007940207105e-05
31.915655480428637,6.50000857397477e-05
35.127626939445406,6.500009188364184e-05
40.05899915410312,6.500010103231566e-05
44.99037136876083,6.500010992564219e-05
49.92174358341855,6.500011862781644e-05
54.85311579807626,6.500012717589255e-05
63.166531317756295,6.500014127067789e-05
71.47994683743633,6.500015496606958e-05
79.79336235711637,6.500016825501221e-05
88.1067778767964,6.500018107568389e-05
96.42019339647644,6.500019344911818e-05
104.73360891615647,6.500020541488213e-05
113.0470244358365,6.5000216932489e-05
121.36043995551654,6.500022799093364e-05
129.67385547519658,6.500023865440514e-05
137.9872709948766,6.500024897427531e-05
146.30068651455665,6.500025894904922e-05
154.61410203423668,6.500026857085813e-05
162.92751755391672,6.500027787666243e-05
171.24093307359675,6.50002869194558e-05
179.55434859327679,6.500029571508092e-05
187.86776411295682,6.500030424897566e-05
196.18117963263686,6.50003125272328e-05
204.4945951523169,6.500032057760452e-05
212.80801067199693,6.500032841879792e-05
221.12142619167696,6.500033604850376e-05
229.434841711357,6.500034346443661e-05
237.74825723103703,6.500035067214325e-05
246.06167275071707,6.50003576841654e-05
254.3750882703971,6.50003645060483e-05
262.68850379007716,6.5000371138444e-05
271.0019193097572,6.500037758329317e-05
279.3153348294373,6.50003838470514e-05
287.62875034911735,6.500038993499209e-05
295.9421658687974,6.50003958525992e-05
304.2555813884775,6.500040160191827e-05
312.56899690815754,6.5000407186875e-05
320.8824124278376,6.500041261130631e-05
329.19582794751767,6.500041788109344e-05
337.50924346719773,6.500042299966066e-05
345.8226589868778,6.500042797173874e-05
354.13607450655786,6.500043279928604e-05
362.4494900262379,6.500043748754284e-05
370.762905545918,6.500044204007269e-05
379.07632106559805,6.500044646206053e-05
387.3897365852781,6.500045075521249e-05
395.7031521049582,6.500045492441249e-05
404.01656762463824,6.500045897177098e-05
412.3299831443183,6.50004629028322e-05
420.64339866399837,6.500046671928523e-05
428.95681418367843,6.500047042584106e-05
437.2702297033585,6.500047402354354e-05
449.77153774167294,6.500047923958632e-05
462.2728457799874,6.500048423607853e-05
474.77415381830184,6.500048901576638e-05
487.2754618566163,6.500049358671304e-05
499.77676989493074,6.500049795586824e-05
512.2780779332452,6.50005021322271e-05
524.7793859715596,6.500050612804664e-05
545.3029184488828,6.500051231450692e-05
565.826450926206,6.500051806900323e-05
586.3499834035292,6.500052341991427e-05
623.1552491178537,6.500053209540529e-05
659.9605148321782,6.500053970904054e-05
696.7657805465027,6.50005463920024e-05
700.0,6.500054693846149e-05
700.0,6.500054693846149e-05
700.0000524525366,6.500054693847028e-05
700.000136629178,6.50005469384844e-05
700.0003185384417,6.500054693851482e-05
700.0005004477053,6.500054693854515e-05
700.0008695056545,6.500054693860646e-05
700.0012385636036,6.50005469386675e-05
700.0021514037527,6.500054693881738e-05
700.0030642439018,6.500054693896587e-05
700.0039770840509,6.50005469391131e-05
700.0048899242,6.500054693925919e-05
700.0063207202991,6.500054693948626e-05
700.0077515163981,6.500054693971114e-05
700.0091823124972,6.500054693993405e-05
700.0115720002883,6.500054694030272e-05
700.0139616880795,6.500054694066716e-05
700.017714905452,6.500054694123238e-05
700.0214681228244,6.500054694178998e-05
700.02794069212,6.500054694273745e-05
700.0344132614155,6.50005469436725e-05
700.040885830711,6.500054694459918e-05
700.0473584000065,6.500054694552162e-05
700.053830969302,6.500054694644309e-05
700.0643421568026,6.500054694794406e-05
700.0748533443032,6.50005469494603e-05
700.0853645318037,6.500054695100197e-05
700.1014905554476,6.500054695343734e-05
700.1176165790915,6.500054695598614e-05
700.1337426027354,6.50005469586786e-05
700.1633790136062,6.500054696409922e-05
700.193015424477,6.500054697027804e-05
700.2226518353478,6.500054697739931e-05
700.2522882462187,6.500054698563519e-05
700.2819246570895,6.500054699517513e-05
700.3115610679603,6.500054700621899e-05
700.3593615207002,6.500054702772163e-05
700.4071619734401,6.50005470545825e-05
700.45496242618,6.500054708780184e-05
700.50276287892,6.500054712849368e-05
700.5505633316599,6.500054717789178e-05
700.6300674148466,6.500054728311655e-05
700.7512048605292,6.500054751434302e-05
700.8723423062119,6.500054786156374e-05
700.9934797518945,6.500054836914364e-05
701.1146171975771,6.500054909947743e-05
701.2357546432597,6.500055013901389e-05
701.3568920889423,6.500055160584135e-05
701.478029534625,6.50005536621482e-05
701.6783677915145,6.500055901883356e-05
701.878706048404,6.500056832776676e-05
701.9287906126264,6.500057154938498e-05
701.9788751768488,6.500057525400317e-05
702.0289597410712,6.500057952142857e-05
702.0790443052936,6.500058444989494e-05
702.0915654463491,6.500058579886094e-05
702.1040865874047,6.500058719916234e-05
702.1235014647287,6.500058947813275e-05
702.1311390614633,6.500059041255414e-05
702.1387766581978,6.50005913694924e-05
702.1518207271292,6.500059305826753e-05
702.1648647960607,6.500059481973495e-05
702.1779088649921,6.500059665941885e-05
702.1909529339235,6.500059858407308e-05
702.1993906683255,6.500059987832553e-05
702.2078284027274,6.500060121482354e-05
702.2162661371293,6.500060259744912e-05
702.2247038715312,6.500060403112524e-05
702.2331416059332,6.500060552238025e-05
702.2387627702068,6.5000606551787e-05
702.2443839344804,6.500060761333974e-05
702.2500050987541,6.500060871047046e-05
702.2556262630277,6.50006098470895e-05
702.2612474273013,6.500061102760897e-05
702.266868591575,6.500061225697717e-05
702.2724897558486,6.500061354071641e-05
702.2781109201222,6.500061488499308e-05
702.2865547896561,6.500061703342268e-05
702.2949986591899,6.50006193609924e-05
702.3034425287237,6.500062189914063e-05
702.3118863982576,6.500062468486336e-05
702.3203302677914,6.500062776178635e-05
702.3333229617297,6.500063318743461e-05
702.3463156556679,6.500063966066797e-05
702.3593083496062,6.500064748028938e-05
702.3723010435444,6.50006570297853e-05
702.3852937374827,6.500066880131769e-05
702.398286431421,6.50006834207739e-05
702.4112791253592,6.500070168360077e-05
702.4242718192975,6.50007245907469e-05
702.4372645132357,6.500075340555168e-05
702.450257207174,6.500078970702562e-05
702.4632499011122,6.500083548497627e-05
702.4762425950505,6.500089322679421e-05
702.4892352889888,6.500096608628806e-05
702.502227982927,6.500105803753591e-05
702.52207583527,6.500124825129967e-05
702.541923687613,6.500152175469615e-05
702.561771539956,6.500191734450264e-05
702.581619392299,6.500249980907833e-05
702.601467244642,6.500336955979194e-05
702.621315096985,6.500469966614551e-05
702.641162949328,6.500678919073598e-05
702.6522831670906,6.500845549490514e-05
702.6634033848532,6.50106310032431e-05
702.6745236026157,6.501346405334296e-05
702.6856438203783,6.501713445362603e-05
702.6967640381409,6.50218431830065e-05
702.7078842559035,6.50278155207684e-05
702.7190044736661,6.503527626677326e-05
702.7301246914287,6.504445675381425e-05
702.7412449091913,6.505558338216086e-05
702.7523651269539,6.50688751556559e-05
702.7634853447165,6.50845341621434e-05
702.7746055624791,6.510274212471695e-05
702.7857257802417,6.512365920703926e-05
702.7968459980043,6.514742353889015e-05
702.8079662157669,6.517415165159354e-05
702.8190864335295,6.52039399424785e-05
702.8302066512921,6.523686651078559e-05
702.8413268690547,6.527299290541499e-05
702.8524470868173,6.531236573183333e-05
702.8635673045799,6.535501813268325e-05
702.8746875223425,6.540097206745102e-05
702.8858077401051,6.545023688026638e-05
702.8969279578677,6.55028118990809e-05
702.9080481756303,6.555869036694747e-05
702.9191683933929,6.561785687111115e-05
702.9302886111554,6.568028904148046e-05
702.941408828918,6.574595915281193e-05
702.9581784930383,6.585104045960904e-05
702.9749481571586,6.596327894149517e-05
702.9917178212788,6.608252598496684e-05
703.0084874853991,6.620861875340112e-05
703.0252571495193,6.634138182380045e-05
703.0420268136396,6.648063262691156e-05
703.0587964777599,6.66261851807659e-05
703.0755661418801,6.677784985616044e-05
703.0923358060004,6.693543590309679e-05
703.1091054701207,6.709875379033813e-05
703.1258751342409,6.726761565457205e-05
703.1426447983612,6.744183667245372e-05
703.1594144624814,6.762123604854176e-05
703.1761841266017,6.7805637181402e-05
703.192953790722,6.799486805092784e-05
703.2097234548422,6.818876145417211e-05
703.2264931189625,6.838715501808891e-05
703.2432627830827,6.858989119832537e-05
703.260032447203,6.879681721767414e-05
703.2768021113233,6.900778495998532e-05
703.2935717754435,6.922265090075372e-05
703.3103414395638,6.944127585762143e-05
703.327111103684,6.966352481343315e-05
703.3438807678043,6.988926705702484e-05
703.3606504319246,7.011837576766713e-05
703.3774200960448,7.035072792714933e-05
703.3941897601651,7.058620408710685e-05
703.4109594242854,7.0824688262379e-05
703.4277290884056,7.106606767306371e-05
703.4444987525259,7.13102325543229e-05
703.4612684166461,7.155707589232398e-05
703.4780380807664,7.18064932047363e-05
703.4948077448867,7.205838224706265e-05
703.5115774090069,7.23126427271382e-05
703.5283470731272,7.256917594998387e-05
703.5451167372474,7.282788445449602e-05
703.5618864013677,7.308867157815446e-05
703.578656065488,7.335144099619876e-05
703.5954257296082,7.361609619079701e-05
703.6121953937285,7.388253989505678e-05
703.6289650578487,7.415067348713008e-05
703.645734721969,7.442039638347369e-05
703.6625043860893,7.469160543252022e-05
703.6792740502095,7.496419437248016e-05
703.6960437143298,7.523805338418614e-05
703.71281337845,7.551306881371827e-05
703.7394348198067,7.595173387219568e-05
703.7660562611633,7.639252781407636e-05
703.7926777025199,7.683494360342138e-05
703.8192991438765,7.727846971263925e-05
703.8459205852331,7.772259972756543e-05
703.8725420265897,7.816684014532248e-05
703.8991634679463,7.86107327547274e-05
703.9257849093029,7.905385422823378e-05
703.9524063506595,7.94958236398049e-05
703.9790277920162,7.993630227210862e-05
704.0,8.02820639533131e-05
704.0,8.02820639533131e-05
704.00000023147,8.028206776286794e-05
704.0000433213185,8.02827769892845e-05
704.0001222863174,8.02840768496189e-05
704.0002928401477,8.028688507691026e-05
704.0005591566368,8.029127150452354e-05
704.0008254731258,8.029565943617793e-05
704.0013013786844,8.030350345145111e-05
704.001777284243,8.03113506062185e-05
704.0028895895952,8.032970311681619e-05
704.0040018949474,8.03480691666861e-05
704.0051142002995,8.036644711178978e-05
704.0062265056517,8.038483530210984e-05
704.0079157886704,8.04127770436226e-05
704.0096050716891,8.044073503035715e-05
704.0112943547077,8.046870659521129e-05
704.0141213884999,8.051553911298876e-05
704.0169484222921,8.056239455469087e-05
704.0214698101985,8.063736349548662e-05
704.0259911981049,8.071235767304904e-05
704.0336034964575,8.083863634254955e-05
704.0412157948102,8.09648800326984e-05
704.0488280931629,8.109105180456304e-05
704.0564403915156,8.121711539436333e-05
704.0640526898683,8.134304370712914e-05
704.0761752520419,8.154326041474202e-05
704.0882978142156,8.174301710711578e-05
704.1004203763893,8.19422532374878e-05
704.1187988677775,8.22432074307456e-05
704.1371773591658,8.254270306682441e-05
704.155555850554,8.284061341025682e-05
704.1739343419423,8.313683552785616e-05
704.1923128333306,8.343128275006687e-05
704.2106913247188,8.372387780729617e-05
704.2290698161071,8.401455018342857e-05
704.2474483074953,8.430323624733465e-05
704.2658267988836,8.45898795934401e-05
704.2842052902719,8.487443048965701e-05
704.3025837816601,8.515684482816418e-05
704.3209622730484,8.543708319734145e-05
704.3393407644367,8.571511028582403e-05
704.3577192558249,8.59908945198559e-05
704.3760977472132,8.62644077769641e-05
704.4039698697327,8.667481876326136e-05
704.4318419922522,8.707987500319281e-05
704.4597141147717,8.747951501296922e-05
704.4875862372912,8.787368915006486e-05
704.5154583598107,8.82623580448443e-05
704.5433304823302,8.864549147452914e-05
704.5712026048498,8.902306750155397e-05
704.5990747273693,8.939507170612114e-05
704.6269468498888,8.976149647618878e-05
704.6548189724083,9.012234036271988e-05
704.6969408116616,9.065709022812691e-05
704.739062650915,9.117914391435275e-05
704.7811844901684,9.168855864391243e-05
704.8233063294217,9.21854132405253e-05
704.8654281686751,9.266980575100387e-05
704.9075500079284,9.314185084428825e-05
704.9496718471818,9.360167759561723e-05
704.9917936864351,9.4049427690724e-05
705.0603369908154,9.47526223571137e-05
705.1288802951956,9.542495744126437e-05
705.1974235995758,9.606719827967234e-05
705.265966903956,9.668015910405925e-05
705.3345102083363,9.726469188036018e-05
705.4030535127165,9.782167657824109e-05
705.4495474734189,9.818426388439445e-05
705.4960414341213,9.853487365236049e-05
705.5425353948236,9.887379218833922e-05
705.589029355526,9.920130765489463e-05
705.6355233162284,9.951770909993662e-05
705.6820172769308,9.982328558844072e-05
705.7285112376331,0.00010011832546308992
705.7750051983355,0.00010040311572146996
705.8214991590379,0.0001006779414398287
705.8679931197403,0.0001009430851528496
705.9144870804427,0.00010119882661559024
705.960981041145,0.00010144544200371155
706.0074750018474,0.00010168320372073892
706.0539689625498,0.00010191238006180105
706.1004629232522,0.0001021332348728137
706.1469568839545,0.00010234602731335732
706.1934508446569,0.00010255101165881195
706.2399448053593,0.00010274843711116187
706.2864387660617,0.00010293854763165588
706.332932726764,0.00010312158180405669
706.3794266874664,0.00010329777272486352
706.4259206481688,0.00010346734791638444
706.4724146088712,0.00010363052926314923
706.5189085695736,0.00010378753297236309
706.565402530276,0.0001039385695564642
706.6118964909783,0.00010408384383467618
706.6583904516807,0.00010422355495120758
706.7048844123831,0.00010435789640865322
706.7513783730855,0.0001044870561154023
706.7978723337878,0.00010461121644580365
706.8443662944902,0.00010473055431182964
706.8908602551926,0.00010484524124497283
706.937354215895,0.00010495544348700945
707.0080650833576,0.0001051148097887118
707.0787759508202,0.00010526471827457834
707.1494868182828,0.00010540568668555981
707.2201976857453,0.00010553820735808064
707.2909085532079,0.00010566274821651528
707.3616194206705,0.00010577975366229573
707.4323302881331,0.0001058896454655309
707.5030411555957,0.00010599282369347909
707.5737520230583,0.00010608966763410018
707.6444628905209,0.00010618053667829258
707.7151737579835,0.00010626577116791342
707.7858846254461,0.00010634569322894743
707.8565954929087,0.0001064206075930007
707.9273063603713,0.00010649080239733491
707.9980172278339,0.00010655654995763946
708.0687280952965,0.00010661810751571716
708.1394389627591,0.00010667571796611586
708.2101498302217,0.00010672961056161528
708.2808606976843,0.00010678000159471419
708.3515715651469,0.00010682709505364192
708.4593710770495,0.00010689297573685936
708.5671705889521,0.00010695226964000801
708.6749701008547,0.00010700555409706693
708.7827696127573,0.00010705335586804222
708.8905691246599,0.00010709615552828915
709.0551587076956,0.0001071528367177103
709.2197482907312,0.00010720025861020244
709.3843378737669,0.00010723962292306184
709.5489274568025,0.00010727197164341034
709.7135170398382,0.00010729820936433074
709.8781066228738,0.00010731911987345588
710.13410666933,0.00010734262922980353
710.3901067157861,0.0001073570013544881
710.6461067622423,0.00010736392713934588
710.9021068086985,0.00010736475659174021
711.1581068551546,0.0001073605739713179
711.4141069016108,0.00010735225074930967
711.670106948067,0.00010734048645670493
712.0940860948476,0.00010731492115412849
712.5180652416283,0.00010728338738753402
712.9420443884089,0.00010724721643152778
713.3660235351896,0.00010720736565921203
713.7900026819702,0.0001071645510659938
714.4281111167189,0.00010709571062418285
715.0662195514676,0.00010702269429965717
715.7043279862163,0.00010694635684303517
716.342436420965,0.00010686732391183842
716.9805448557137,0.00010678609413105231
717.6186532904624,0.00010670307010006296
718.256761725211,0.00010661857390177203
718.8948701599597,0.00010653286485240477
719.5329785947084,0.00010644615642898019
720.5033516400762,0.00010631278483068804
721.4737246854439,0.00010617802934521567
722.4440977308117,0.00010604228339701457
723.4144707761794,0.00010590585570329152
724.3848438215472,0.00010576899040149196
725.3552168669149,0.00010563187938410757
726.3255899122827,0.00010549467247069235
727.2959629576504,0.00010535748654653025
728.2663360030182,0.00010522041318294002
729.2367090483859,0.00010508352436256564
730.2070820937537,0.0001049468767466434
731.1774551391214,0.0001048105148756578
732.1478281844892,0.00010467447374187748
733.1182012298569,0.00010453878080882812
734.0885742752247,0.00010440345763753702
735.0589473205924,0.00010426852112544412
736.0293203659602,0.00010413398449476146
736.9996934113279,0.00010399985804569194
737.9700664566957,0.00010386614976716232
738.9404395020634,0.0001037328658035645
739.9108125474312,0.00010360001083357882
740.8811855927989,0.00010346758836866583
741.8515586381667,0.00010333560098285062
742.8219316835344,0.00010320405049539623
743.7923047289022,0.00010307293812085933
744.76267777427,0.00010294226458498826
746.2647327962773,0.00010274085892227026
747.7667878182846,0.00010254050507273603
749.2688428402919,0.00010234120164733276
751.8747135938298,0.00010199791928099458
754.4805843473678,0.00010165777236193719
757.0864551009057,0.00010132073974674715
761.1054387982138,0.0001008069895283072
765.1244224955218,0.00010030049499381651
769.1434061928298,9.980115888756072e-05
775.7193977802932,9.899931077687336e-05
782.2953893677566,9.821593523074282e-05
788.8713809552199,9.745060703770797e-05
795.4473725426833,9.670290971545014e-05
802.0233641301467,9.5972437592082e-05
808.59935571761,9.525879524640913e-05
815.1753473050734,9.456159613605791e-05
825.8011492809242,9.346881890367276e-05
836.4269512567749,9.241643814627481e-05
847.0527532326257,9.140296096422032e-05
857.6785552084765,9.042694902731935e-05
868.3043571843273,8.948701710821387e-05
878.930159160178,8.858183159799405e-05
889.5559611360288,8.771010830018078e-05
900.1817631118796,8.687061024930268e-05
910.8075650877304,8.606214602516917e-05
921.4333670635812,8.52835682868607e-05
932.0591690394319,8.453377220323096e-05
942.6849710152827,8.381169381559363e-05
953.3107729911335,8.311630846958933e-05
