time,voltage
0.0,-80.0
0.0002989975869297549,-79.99997635493631
0.0012925203504343338,-79.99989750055866
0.0037395677373138324,-79.99970176058848
0.007828007370562821,-79.999371328022
0.014054817191566083,-79.99886188019266
0.020281627012569345,-79.99834731672314
0.03142589370311579,-79.99741754005359
0.04917746481902849,-79.99591958543303
0.08259600688177043,-79.99309775865184
0.11601454894451238,-79.99033093617886
0.14943309100725433,-79.98767524834282
0.18285163306999627,-79.98515709619534
0.2393588308734863,-79.98119914033066
0.2958660286769763,-79.97756100796346
0.3523732264804663,-79.97417136642643
0.4504647274230422,-79.96867764859374
0.5485562283656181,-79.96356148183034
0.7064046593717126,-79.95586118541782
0.8642530903778071,-79.94863433485389
1.1479777130546962,-79.93656797806221
1.4317023357315852,-79.92546113780635
1.7154269584084743,-79.9152196926883
1.9991515810853633,-79.90576782612528
2.2828762037622523,-79.89698508062138
2.7830901476178607,-79.88273578875291
3.5419715508473955,-79.86309052833377
4.30085295407693,-79.84453649882552
5.059734357306465,-79.82615519625769
5.818615760536,-79.80749172390135
6.577497163765535,-79.78838278855856
7.814869873753511,-79.75634717978686
9.052242583741487,-79.72345606239922
10.289615293729463,-79.69020397256236
12.22788292405582,-79.63870152164247
14.166150554382176,-79.58945717534768
16.104418184708532,-79.54370092545186
19.341822372598255,-79.47682828164697
22.579226560487978,-79.42277003243346
25.8166307483777,-79.38119181991375
29.054034936267424,-79.35121820933801
32.291439124157144,-79.33184943124958
35.52884331204687,-79.32199459420575
40.5063161937898,-79.32270720219641
45.48378907553274,-79.33896954497725
50.46126195727568,-79.3671026629643
55.43873483901862,-79.4040439621992
63.825194969107876,-79.47900264684786
72.21165509919713,-79.56142676813779
80.59811522928638,-79.64396085037178
88.98457535937564,-79.7214052953718
97.3710354894649,-79.79067445824937
105.75749561955416,-79.85042428595817
114.14395574964342,-79.90020473800365
122.53041587973269,-79.9401810125987
130.91687600982195,-79.97113289950211
139.3033361399112,-79.99411601489483
147.68979627000047,-80.01038100711358
156.07625640008973,-80.02139742048328
164.462716530179,-80.02835632182175
172.84917666026826,-80.03204946970067
181.23563679035752,-80.03330578741343
189.62209692044678,-80.03291796767368
198.00855705053604,-80.03143861540319
206.3950171806253,-80.02935459934365
214.78147731071456,-80.02697363907366
223.16793744080383,-80.0243848242663
231.5543975708931,-80.021802779491
239.94085770098235,-80.01949292779541
248.3273178310716,-80.01743713785022
256.7137779611609,-80.01551019286674
265.1002380912501,-80.01373527918074
273.48669822133934,-80.01218937784837
281.8731583514286,-80.01090835713983
290.2596184815178,-80.00985785687571
298.64607861160704,-80.0089423723848
307.03253874169627,-80.00814865481594
315.4189988717855,-80.00752202210168
323.80545900187474,-80.00703104895163
332.19191913196397,-80.00662560689095
340.5783792620532,-80.0062979624219
348.96483939214244,-80.00602228955849
357.35129952223167,-80.00579813401816
365.7377596523209,-80.00564217087819
374.12421978241014,-80.00552052044969
382.51067991249937,-80.00540727792706
390.8971400425886,-80.00532524906643
399.28360017267784,-80.00526268580703
407.67006030276707,-80.00520934184486
416.0565204328563,-80.00517758923102
424.44298056294554,-80.00515256120524
432.82944069303477,-80.00511984438947
441.215900823124,-80.00510495379757
449.60236095321324,-80.00509684048075
457.98882108330247,-80.00508259217335
466.3752812133917,-80.00507637402599
474.76174134348094,-80.00507535530355
483.14820147357017,-80.00506362091173
491.5346616036594,-80.00506340089879
499.92112173374863,-80.00506605933207
508.30758186383787,-80.0050599384398
516.6940419939272,-80.00505783777001
525.0805021240164,-80.00506340192857
533.4669622541057,-80.00506320987853
541.853422384195,-80.00507200914407
550.2398825142843,-80.00508295853169
558.6263426443736,-80.00508209940773
567.0128027744629,-80.00507734334182
575.3992629045522,-80.00508519227314
583.7857230346415,-80.0050892853733
592.1721831647308,-80.00508940338872
600.5586432948201,-80.00508191225619
608.9451034249093,-80.00507448839635
617.3315635549986,-80.00507233092091
625.7180236850879,-80.00507899575558
634.1044838151772,-80.0050733977399
642.4909439452665,-80.00506848810191
650.8774040753558,-80.00506539351913
659.2638642054451,-80.00506619521401
667.6503243355344,-80.00506313268373
676.0367844656237,-80.00506637576456
684.423244595713,-80.00505950535897
692.8097047258022,-80.00505839439707
700.0,-80.00505928599696
700.0,-80.00505928599696
700.0000521228092,-80.0050592861767
700.0001355764338,-80.00505928646449
700.0003155794046,-80.00505928708532
700.0004955823755,-80.00505928770625
700.000861351888,-80.00505928896825
700.0012271214006,-80.00505929023065
700.00213199159,-80.0050592933554
700.0030368617794,-80.00505929648266
700.0039417319688,-80.00505929961238
700.0048466021582,-80.00505930274427
700.0062638654923,-80.00505930764737
700.0076811288264,-80.0050593125202
700.0090983921606,-80.00505931727166
700.0114612750996,-80.00505932340388
700.0138241580386,-80.00505932246402
700.0175321319887,-80.00505926636245
700.0212401059388,-80.00505901925513
700.0276376543856,-80.00505675725752
700.0340352028323,-80.00504828845362
700.0404327512791,-80.00502535815934
700.0468302997259,-80.00497456308527
700.0532278481727,-80.00487733336882
700.0636216553635,-80.00455959449575
700.0740154625543,-80.00395389862679
700.084409269745,-80.00295842549531
700.1003581756988,-80.00047960232301
700.1163070816526,-79.99665389924652
700.1322559876064,-79.99136333517579
700.1615814850271,-79.97774132330572
700.1909069824478,-79.95933950746452
700.2202324798685,-79.93669341498605
700.2495579772892,-79.91032427755627
700.2788834747099,-79.88066410489816
700.3082089721306,-79.84810129683426
700.3553433510879,-79.79061145680829
700.4024777300451,-79.72789000501463
700.4496121090024,-79.66091813157809
700.4967464879596,-79.59039738193522
700.5438808669169,-79.51684955495168
700.6222502995163,-79.38896955632957
700.7420026568219,-79.18266681289855
700.8617550141275,-78.96528559959937
700.9815073714332,-78.73792814063309
701.1012597287388,-78.5013842613498
701.2210120860444,-78.25626983835342
701.34076444335,-78.00290753546489
701.4605168006557,-77.74137256422613
701.6580359423971,-77.29203419384869
701.7915347359219,-76.97526281409208
701.8249094343031,-76.89436338155801
701.8582841326843,-76.81275818321268
701.8916588310655,-76.73042725405345
701.9250335294466,-76.64734442062286
701.9584082278278,-76.56347581401153
701.991782926209,-76.47877729961864
702.0251576245902,-76.39319047988069
702.0585323229714,-76.30663548387028
702.079090777994,-76.25279031802795
702.0996492330166,-76.19849976372089
702.1202076880393,-76.1437146447313
702.1407661430619,-76.08836663013842
702.1513070003191,-76.05974049481772
702.1584228022319,-76.04030947883689
702.1655386041448,-76.02078498146133
702.1726544060576,-76.00115905671927
702.1797702079705,-75.98142229828031
702.1868860098833,-75.96156350300315
702.1940018117962,-75.94156931187314
702.201117613709,-75.92142386102327
702.2082334156219,-75.90110849607184
702.2153492175347,-75.8806016256574
702.2224650194476,-75.85987879036738
702.2295808213604,-75.83891299125732
702.2366966232732,-75.8176752667577
702.2476860413316,-75.78427251338913
702.2586754593899,-75.75003797577803
702.2696648774482,-75.7148636956507
702.2806542955066,-75.67865184199633
702.2916437135649,-75.64131879694409
702.3026331316232,-75.60279690831499
702.3136225496816,-75.56303468793658
702.3246119677399,-75.52199614741933
702.3356013857982,-75.47965966853623
702.3465908038565,-75.43601657680489
702.3575802219149,-75.39106949705167
702.3685696399732,-75.34483056883971
702.3795590580315,-75.29731961559509
702.3905484760899,-75.2485623547352
702.4015378941482,-75.19858870378953
702.4125273122065,-75.14743119623928
702.4235167302649,-75.09512349172597
702.4345061483232,-75.04169895883034
702.4454955663815,-74.98718931672427
702.4564849844398,-74.93162332683497
702.4674744024982,-74.87502551767362
702.4784638205565,-74.81741491094073
702.4894532386148,-74.75880370550082
702.5004426566732,-74.69919587000302
702.5114320747315,-74.63858558816693
702.5224214927898,-74.57695548693256
702.5334109108481,-74.51427455690815
702.5444003289065,-74.45049565025232
702.5553897469648,-74.38555241554496
702.5663791650231,-74.31935550465481
702.5773685830815,-74.25178787195036
702.5954552020038,-74.13717771016317
702.6079835877287,-74.05489293094882
702.6205119734535,-73.96977793428623
702.6330403591784,-73.88131676524381
702.6455687449032,-73.78888428698812
702.6580971306281,-73.69175519068652
702.670625516353,-73.58913538559912
702.6831539020778,-73.48021971573016
702.6956822878027,-73.36426895630709
702.7082106735276,-73.24068720592929
702.7207390592524,-73.10907621876758
702.7332674449773,-72.96925122491062
702.7457958307021,-72.82121998970638
702.758324216427,-72.66514216899505
702.7708526021519,-72.50128940780256
702.7833809878767,-72.33001777198297
702.7959093736016,-72.15175193655672
702.8084377593265,-71.9669743679485
702.8209661450513,-71.77621424670647
702.8334945307762,-71.58003501268776
702.846022916501,-71.37902127825194
702.8585513022259,-71.17376526134619
702.8710796879508,-70.96485247880696
702.8836080736756,-70.75284744479364
702.8961364594005,-70.538281297452
702.9086648451254,-70.32164317552014
702.9211932308502,-70.1033759580538
702.9337216165751,-69.88387583855686
702.9525639951466,-69.55219578449474
702.9714063737182,-69.2195486699021
702.9902487522897,-68.88680135558006
703.0090911308613,-68.55469444889805
703.0279335094328,-68.2238709631064
703.0467758880044,-67.89488423811969
703.0656182665759,-67.56819111972973
703.0844606451475,-67.24414285180713
703.103303023719,-66.92298093771427
703.1221454022906,-66.60483678966567
703.1409877808621,-66.28973204066708
703.1598301594337,-65.97758102781462
703.1786725380052,-65.66819958194806
703.1975149165768,-65.36132015424532
703.2163572951483,-65.05660829598217
703.2351996737199,-64.75367663568333
703.2540420522914,-64.45209731746623
703.272884430863,-64.15141501887265
703.2917268094345,-63.85115956684486
703.3105691880061,-63.5508558346401
703.3294115665776,-63.25003118095051
703.3482539451492,-62.94822252723521
703.3670963237207,-62.644983295686906
703.3859387022923,-62.339888373736734
703.4047810808638,-62.03253648686331
703.4236234594354,-61.7225513451093
703.4424658380069,-61.4095820055524
703.4613082165785,-61.09330073537265
703.48015059515,-60.77339711433281
703.4989929737216,-60.449569386759414
703.5178353522931,-60.121514375299874
703.5366777308647,-59.78891564060769
703.5555201094362,-59.45142964471404
703.5743624880078,-59.10867212224996
703.5932048665793,-58.760208310491976
703.6120472451508,-58.40554972524721
703.6308896237224,-58.044159525037685
703.6632239758834,-57.40668925911957
703.6955583280444,-56.7450377028249
703.7278926802054,-56.057282682253415
703.7602270323664,-55.3433011984838
703.7925613845274,-54.60569708689145
703.8248957366884,-53.84997477290087
703.8572300888494,-53.083661610784674
703.8895644410104,-52.314929362698734
703.9218987931714,-51.55160726816314
703.9542331453324,-50.800724244068576
703.9865674974934,-50.0680201216217
704.0,-49.76997714405195
704.0,-49.76997714405195
704.0000521218892,-49.76882836547681
704.0001356163565,-49.766988280462726
704.0003162004284,-49.76300920859456
704.0004967845003,-49.75903085008662
704.000862697797,-49.75097154804562
704.0012286110936,-49.74291485090108
704.0021317424737,-49.72304215176245
704.0030348738538,-49.703187149075276
704.003938005234,-49.6833500507057
704.0048411366141,-49.66353097819002
704.0062581372628,-49.63247172402872
704.0076751379114,-49.60145739655082
704.00909213856,-49.57048826714006
704.011457405872,-49.518895878174526
704.0138226731839,-49.46743111854453
704.0175389788361,-49.38682953907288
704.0212552844883,-49.306547913558994
704.0277077007439,-49.167928245924
704.0341601169995,-49.030297883322795
704.0406125332551,-48.89367428512368
704.0470649495106,-48.75807750701213
704.0535173657662,-48.62353006402895
704.0640651285976,-48.40590681574833
704.074612891429,-48.191247808984784
704.0851606542603,-47.979634186431454
704.1012335456488,-47.66314310182813
704.1173064370373,-47.35392443409398
704.1333793284258,-47.05193192161255
704.1494522198143,-46.75701932883747
704.1655251112028,-46.4689869897529
704.1815980025913,-46.187613756080204
704.1976708939798,-45.91266696476354
704.2230575039068,-45.49089458935336
704.2484441138339,-45.083555416157374
704.273830723761,-44.68966095163975
704.299217333688,-44.30825999182244
704.3246039436151,-43.938444259845554
704.3499905535422,-43.579338856650836
704.3753771634692,-43.23010581636743
704.4007637733963,-42.889958474292925
704.4261503833234,-42.558165808889854
704.4515369932504,-42.23404445678307
704.4769236031775,-41.916954311238044
704.5023102131046,-41.60630228845587
704.5276968230316,-41.30154379854457
704.5530834329587,-41.00217586807872
704.5784700428858,-40.70772893303835
704.6038566528129,-40.41776233922266
704.6292432627399,-40.131859951885005
704.654629872667,-39.849621651151416
704.6984890304046,-39.36948482220433
704.7423481881423,-38.8970289580852
704.7862073458799,-38.43005248605347
704.8300665036176,-37.966085126471185
704.8739256613552,-37.50228307383883
704.9177848190928,-37.03537867758972
704.9894821833236,-36.25567384100382
705.0611795475544,-35.43961529009668
705.1328769117852,-34.56791211930304
705.2045742760159,-33.62280273953482
705.2762716402467,-32.59246633946515
705.3479690044775,-31.47554533655775
705.396824642049,-30.67045248932352
705.4456802796204,-29.838418567782423
705.4945359171919,-28.989386766475942
705.5433915547634,-28.13368536867128
705.5922471923349,-27.279978658010403
705.6411028299063,-26.43406125830584
705.6899584674778,-25.59850391566086
705.7388141050493,-24.77351117597056
705.7876697426208,-23.95841498797311
705.8365253801923,-23.153589794659588
705.8853810177637,-22.361767181008386
705.9342366553352,-21.588220385155072
705.9830922929067,-20.83970960637868
706.0319479304782,-20.1231646106126
706.0808035680496,-19.44484534730827
706.1296592056211,-18.810158631763755
706.1785148431926,-18.22368919911786
706.2273704807641,-17.68916887517957
706.2762261183356,-17.209305503756767
706.325081755907,-16.785521491266884
706.3739373934785,-16.417658376887715
706.42279303105,-16.103792816625816
706.4716486686215,-15.840317683293557
706.520504306193,-15.62232467489209
706.5693599437644,-15.444165304730985
706.6182155813359,-15.30001404973817
706.6670712189074,-15.184313712708056
706.7159268564789,-15.092026636559956
706.7647824940503,-15.01879205787429
706.8136381316218,-14.960976308862717
706.8624937691933,-14.91567674068134
706.9113494067648,-14.880671322352233
706.9602050443362,-14.85432287254936
707.0090606819077,-14.83547590409316
707.0579163194792,-14.823368110518917
707.1322141048826,-14.81690760220057
707.2065118902859,-14.824467516925449
707.2808096756893,-14.846543484513889
707.3551074610926,-14.884426688624616
707.429405246496,-14.93968888163434
707.5037030318994,-15.013527403950333
707.5780008173027,-15.106554178558643
707.6522986027061,-15.219243830782258
707.7265963881094,-15.35238316425934
707.8008941735128,-15.506901295444496
707.8751919589162,-15.683309806485676
707.9494897443195,-15.881369690524744
708.0237875297229,-16.100169413290452
708.0980853151262,-16.33831518038217
708.1723831005296,-16.593993977597346
708.246680885933,-16.865035868998184
708.3618449734906,-17.310353671618422
708.4770090610483,-17.7794242377743
708.592173148606,-18.26545278002266
708.7073372361637,-18.762805039071843
708.8225013237213,-19.26677813362262
709.0012869835035,-20.053248981162202
709.1800726432857,-20.83547237353963
709.3588583030679,-21.60584134189705
709.5376439628501,-22.359406590528778
709.7164296226323,-23.093238169366135
709.8952152824145,-23.805724512392835
710.0740009421967,-24.496043003314842
710.3623012632821,-25.562005409889014
710.6506015843676,-26.571546117908042
710.938901905453,-27.529683458704653
711.2272022265385,-28.44235661877028
711.5155025476239,-29.316012085086136
711.8038028687093,-30.15660571464315
712.0921031897948,-30.97016719710026
712.3804035108802,-31.7622203607886
712.8328600513505,-32.974598876871525
713.2853165918208,-34.16431183073551
713.7377731322911,-35.3458903915838
714.1902296727613,-36.52939671522509
714.6426862132316,-37.723179208246094
715.0951427537019,-38.93046423365376
715.5475992941722,-40.15308137789903
716.0000558346425,-41.38653362393798
716.4525123751127,-42.62644976458452
716.904968915583,-43.863626228013125
717.3574254560533,-45.09096988999512
717.8098819965236,-46.29909445556481
718.2623385369939,-47.48134912582932
718.7147950774641,-48.63238934462784
719.1672516179344,-49.748463285663945
719.6197081584047,-50.8270616769856
720.072164698875,-51.866847750181584
720.5246212393453,-52.867370734487096
720.9770777798155,-53.82882786804043
721.4295343202858,-54.75178924222422
721.8819908607561,-55.637086047817604
722.3344474012264,-56.485743068934276
722.7869039416967,-57.29887903378236
723.5011537811241,-58.513094034092695
724.2154036205516,-59.64659555320648
724.929653459979,-60.70432022219988
725.6439032994065,-61.69126486558769
726.8829920066373,-63.24993174831541
728.1220807138682,-64.63482767504661
729.361169421099,-65.86863950736911
730.6002581283299,-66.97172733857523
731.8393468355607,-67.96199707253142
733.0784355427916,-68.8549647281337
734.3175242500224,-69.66395887918914
735.5566129572533,-70.40034837777941
736.7957016644841,-71.07377548024822
738.034790371715,-71.69238078166113
740.0661549529268,-72.60518157254383
742.0975195341387,-73.41298489169738
744.1288841153505,-74.13441290181932
746.1602486965623,-74.78313768449304
749.4632478424504,-75.70965300469162
752.7662469883385,-76.50472704209955
756.0692461342265,-77.19066489149361
759.3722452801146,-77.78460601816468
762.6752444260027,-78.30017661715544
765.9782435718907,-78.74795814012862
771.5305523881203,-79.3706522326629
777.0828612043499,-79.85612358376942
782.6351700205795,-80.22824085141838
788.1874788368091,-80.5074675633697
793.7397876530387,-80.71123513306317
799.2920964692682,-80.85391867533325
808.1557468504913,-80.98415010833261
817.0193972317143,-81.0273413586663
825.8830476129373,-81.01248801567404
834.7466979941603,-80.96146463488289
843.6103483753833,-80.89012503136252
852.4739987566063,-80.80949354422944
861.3376491378293,-80.72691928507179
870.2012995190523,-80.64701501717059
879.0649499002753,-80.57248725571499
887.9286002814983,-80.5047464122072
901.5325696583568,-80.41519869839799
915.1365390352153,-80.34243109137665
928.7405084120737,-80.28419389457399
942.3444777889322,-80.23785564126106
955.9484471657906,-80.20105680121408
976.6012355027389,-80.15919893302758
997.2540238396871,-80.12915026694024
999.9999999999778,-80.12579275956111
1000.0000000000111,-80.12579275956111
1000.0000000000111,-80.12579275956111
