time,voltage
0.0,-80.0
0.000298997586929921,-80.00256753782372
0.0012925203504350195,-80.00947013682531
0.003739567737313168,-80.02184203488981
0.00782800737056152,-80.03692404525715
0.01405481719156754,-80.05422402650977
0.02028162701257356,-80.06840861417355
0.03142589370318946,-80.08975200992565
0.04917746481915614,-80.11682393027078
0.0825960068818461,-80.15573336703493
0.11601454894453606,-80.18513331042932
0.14943309100722602,-80.20968032173992
0.18285163306991598,-80.23129221189373
0.23935883087486373,-80.2636287736539
0.2958660286798115,-80.291694957077
0.35237322648475927,-80.3166300181163
0.4504647274244194,-80.35496651204424
0.5485562283640796,-80.38838656481005
0.7064046593668181,-80.43519460051884
0.8642530903695566,-80.47620301586282
1.1479777130195143,-80.54106418668555
1.4317023356694722,-80.59995965562135
1.7154269583194302,-80.65550387641477
1.999151580969388,-80.70839566429572
2.2828762036193457,-80.75896700797973
2.7830901474277048,-80.8434522250758
3.5419715506490674,-80.96258535200765
4.3008529538704305,-81.07315598709887
5.059734357091793,-81.17639640384915
5.818615760313156,-81.27289705630409
6.5774971635345185,-81.36313145855034
7.814869873572097,-81.49794503145476
9.052242583609676,-81.61893290764708
10.289615293647254,-81.72747371644355
12.227882923702557,-81.8751636699464
14.166150553757861,-81.99898302017054
16.104418183813166,-82.10234319815423
19.341822371335443,-82.23739458317486
22.57922655885772,-82.33536729203873
25.816630746379996,-82.40558925753216
29.054034933902273,-82.4554023815966
32.291439121424546,-82.49050139452167
35.52884330894682,-82.51524191987302
40.50631618551724,-82.54049727519134
45.483789062087666,-82.55733925840802
50.46126193865809,-82.57079348828763
55.438734815228514,-82.58381106499581
63.82519496557476,-82.60847571546265
72.211655115921,-82.63815975794208
80.59811526626726,-82.67263231171607
88.98457541661351,-82.70980343174337
97.37103556695976,-82.74674561189111
105.75749571730601,-82.78089521572693
114.14395586765227,-82.81088422152695
122.53041601799852,-82.83643381628765
130.91687616834477,-82.85744966058715
139.303336318691,-82.87383705406515
147.68979646903725,-82.88582638761848
156.07625661938349,-82.89405662683859
164.46271676972972,-82.89926983735532
172.84917692007596,-82.90213422478634
181.2356370704222,-82.90311912864077
189.62209722076844,-82.90264469925052
198.00855737111468,-82.90115728184952
206.39501752146091,-82.89908815918976
214.78147767180715,-82.89670280701066
223.1679378221534,-82.8941878720131
231.55439797249963,-82.89164190714635
239.94085812284587,-82.88918983769155
248.3273182731921,-82.88693639432715
256.7137784235384,-82.8849264655729
265.1002385738846,-82.88311261666733
273.48669872423085,-82.88149238226603
281.8731588745771,-82.8800642147908
290.2596190249233,-82.8788608097193
298.64607917526956,-82.87784753107152
307.0325393256158,-82.87699512502955
315.41899947596204,-82.87625760096874
323.8054596263083,-82.875656967582
332.1919197766545,-82.87516204496298
340.57837992700075,-82.87477359261584
348.964840077347,-82.87444215216767
357.35130022769323,-82.87417829390016
365.73776037803947,-82.87395173917491
374.1242205283857,-82.87379107587137
382.51068067873194,-82.87364936808012
390.8971408290782,-82.87354915348752
399.2836009794244,-82.87345027485331
407.67006112977066,-82.87338983349359
416.0565212801169,-82.87332486501518
424.44298143046313,-82.87329643042088
432.8294415808094,-82.87325039762172
441.2159017311556,-82.87323554762918
449.60236188150185,-82.87320029903698
457.9888220318481,-82.87320001801024
466.3752821821943,-82.87317185379747
474.76174233254056,-82.87317994310739
483.1482024828868,-82.87315365483826
491.53466263323304,-82.87316665437474
499.9211227835793,-82.87314214851872
508.3075829339255,-82.8731615512313
516.6940430842718,-82.87313514217117
525.080503234618,-82.87315833067098
533.4669633849643,-82.87317499455499
541.8534235353105,-82.87321625996404
550.2398836856568,-82.8731780349742
558.626343836003,-82.87317418427698
567.0128039863492,-82.87314683940413
575.3992641366955,-82.8731738251976
583.7857242870417,-82.8731527014471
592.172184437388,-82.87317759439863
600.5586445877342,-82.87314376542845
608.9451047380804,-82.87317158223902
617.3315648884267,-82.87313983849235
625.7180250387729,-82.87317265486121
634.1044851891191,-82.87313494308559
642.4909453394654,-82.87317150931412
650.8774054898116,-82.87312725146674
659.2638656401579,-82.87316920659723
667.6503257905041,-82.87312136959972
676.0367859408503,-82.8731690437136
684.4232460911966,-82.87311413533543
692.8097062415428,-82.87316746639516
700.0,-82.87315813221909
700.0,-82.87315813221909
700.0001661193587,-82.87797416058515
700.0005923168249,-82.88898687034687
700.0016133691121,-82.91065665103605
700.0031535297719,-82.93699727777418
700.0046936904317,-82.95928860568208
700.0074295580524,-82.99169547321175
700.0101654256731,-83.01958304738835
700.0143139264184,-83.05551024118233
700.0208184605701,-83.10480301812909
700.0273229947219,-83.1472465787441
700.0429125686525,-83.23160677842776
700.058502142583,-83.29889876626338
700.0740917165136,-83.35616705396173
700.0896812904442,-83.40707267716085
700.1132111712427,-83.47626227752352
700.1367410520412,-83.53823564378249
700.1602709328397,-83.59482097559918
700.2004232165281,-83.68211010944822
700.2405755002164,-83.76039640085921
700.3170691402916,-83.89169118586557
700.3935627803667,-84.00728441070491
700.4700564204418,-84.11214947277169
700.5465500605169,-84.20875187208136
700.623043700592,-84.29875656561616
700.7576237501287,-84.44477772763824
700.8922037996654,-84.579666930701
701.026783849202,-84.70692627214177
701.2342735740958,-84.89248479864975
701.4417632989896,-85.06893112603976
701.6492530238834,-85.23874344738338
702.0566223831659,-85.55879623621058
702.4639917424483,-85.86498728763922
702.8713611017308,-86.15901179191734
703.2787304610133,-86.44310674552865
703.6860998202958,-86.71946705365741
704.3307341506791,-87.14291229216549
704.9753684810623,-87.55065330887973
705.6200028114456,-87.94373157862299
706.2646371418289,-88.32328215833918
707.2676539412436,-88.88949725535947
708.7815124899213,-89.69382961033895
710.295371038599,-90.44431144697187
711.8092295872767,-91.14613864481392
713.3230881359544,-91.80346444652935
714.8369466846322,-92.42008391969296
717.2065373584812,-93.31088025255833
719.5761280323303,-94.11899173538411
721.9457187061794,-94.85182842866675
724.3153093800285,-95.51580839715498
726.6849000538775,-96.11668251507677
730.6135004217729,-96.98727868707596
734.5421007896682,-97.71811879447947
738.4707011575636,-98.32604629841026
742.3993015254589,-98.82585667220025
746.3279018933542,-99.2307804035344
752.6805033692067,-99.71457554828464
759.0331048450591,-100.02424371472136
765.3857063209116,-100.19611214165923
774.9777080426883,-100.26176247662927
784.569709764465,-100.16816607528241
794.1617114862416,-99.97955217409212
803.7537132080183,-99.7430529480292
813.345714929795,-99.49159595476254
822.9377166515717,-99.24679177164737
832.5297183733484,-99.02150103712167
842.121720095125,-98.82215524093083
851.7137218169017,-98.65117458662469
861.3057235386784,-98.5085610951798
870.8977252604551,-98.39246041742118
880.4897269822318,-98.2998019276561
890.0817287040085,-98.22716959861123
899.6737304257852,-98.17125682222192
909.2657321475618,-98.12903936389979
918.8577338693385,-98.09784457875537
928.4497355911152,-98.07529183527174
938.0417373128919,-98.05930040872016
947.6337390346686,-98.04822484469965
957.2257407564452,-98.04080421830915
966.8177424782219,-98.03602294623761
976.4097441999986,-98.03309386861218
986.0017459217753,-98.03143333669257
995.593747643552,-98.03060229135458
1005.1857493653287,-98.03031654624584
1014.7777510871053,-98.03038535593014
1024.369752808882,-98.03062588574811
1033.9617545306585,-98.03091551426607
1043.553756252435,-98.03119507396023
1053.1457579742116,-98.0314185618524
1062.7377596959882,-98.03159745401436
1072.3297614177648,-98.03178212399864
1081.9217631395413,-98.03196514333973
1091.513764861318,-98.03212013096807
1101.1057665830945,-98.03224391875102
1110.697768304871,-98.03232484568288
1120.2897700266476,-98.03237344491829
1129.8817717484242,-98.03239429757302
1139.4737734702007,-98.0323589107073
1149.0657751919773,-98.03231170258884
1158.6577769137539,-98.03230514417216
1168.2497786355304,-98.03225806683366
1177.841780357307,-98.03210123858895
1187.4337820790836,-98.031962939563
1197.0257838008602,-98.03196731767028
1206.6177855226367,-98.0320539624549
1216.2097872444133,-98.03212158656967
1225.8017889661899,-98.03213935561222
1235.3937906879664,-98.03213529481532
1244.985792409743,-98.03215646345836
1254.5777941315196,-98.0321834880263
1264.1697958532961,-98.03216851795193
1273.7617975750727,-98.03213766932349
1283.3537992968493,-98.03212456313639
1292.9458010186258,-98.03212401438326
1302.5378027404024,-98.03213434051162
1312.129804462179,-98.032125233065
1321.7218061839556,-98.03208826407715
1331.3138079057321,-98.03208558275769
1340.9058096275087,-98.03210356949198
1350.4978113492853,-98.03208300432547
1360.0898130710618,-98.0320948619621
1369.6818147928384,-98.03222693623233
1379.273816514615,-98.03236409510893
1388.8658182363915,-98.03236390510595
1398.457819958168,-98.03226755775594
1408.0498216799447,-98.03217329927315
1417.6418234017212,-98.0321195995413
1427.2338251234978,-98.0320939544465
1436.8258268452744,-98.03205542598822
1446.417828567051,-98.03201857195555
1456.0098302888275,-98.03202898971732
1465.601832010604,-98.03205173690658
1475.1938337323807,-98.03204973267957
1484.7858354541572,-98.03204403075773
1494.3778371759338,-98.03203464638767
1503.9698388977104,-98.03203951266386
1513.561840619487,-98.03207761590264
1523.1538423412635,-98.03207961991225
1532.74584406304,-98.03204786208876
1539.4451668260706,-98.03207543117571
1546.144489589101,-98.03210021435882
1552.8438123521316,-98.03201808934807
1559.5431351151622,-98.03186909186262
1566.2424578781927,-98.0318004430815
1572.9417806412232,-98.03184714900206
1579.6411034042537,-98.03191418427062
1586.3404261672842,-98.03193976270056
1593.0397489303148,-98.03195210081286
1599.7390716933453,-98.03199090863046
1606.4383944563758,-98.03204550454655
1613.1377172194063,-98.03207662706028
1619.8370399824369,-98.03207586786245
1626.5363627454674,-98.03207499100098
1633.235685508498,-98.03209377944285
1639.9350082715284,-98.03211453050893
1646.634331034559,-98.03211658275438
1653.3336537975895,-98.03210518247256
1660.03297656062,-98.03209865263769
1666.7322993236505,-98.03210358098119
1673.431622086681,-98.03210917088965
1680.1309448497116,-98.03210463901618
1686.830267612742,-98.03209473372078
1693.5295903757726,-98.03209024886046
1700.0,-98.03209187818403
1700.0,-98.03209187818403
1700.0001661197946,-98.02727586586798
1700.0005923191454,-98.0162631580217
1700.001613381479,-97.99459321528543
1700.003153558657,-97.96825227656021
1700.004693735835,-97.94596060568061
1700.0074296608807,-97.91355279025304
1700.0101655859264,-97.88566431182905
1700.0143142216414,-97.84973547001948
1700.0208189124187,-97.80044074970276
1700.027323603196,-97.75799545831177
1700.0429131658486,-97.67363398660964
1700.0585027285013,-97.606341371403
1700.0740922911539,-97.54907343861053
1700.0896818538065,-97.4981692591592
1700.113212037332,-97.42898300195188
1700.1367422208575,-97.3670155098634
1700.160272404383,-97.31043834168148
1700.2004245157398,-97.22316922433592
1700.2405766270965,-97.14490785425087
1700.3170613372702,-97.01368586470988
1700.3935460474438,-96.89817591172167
1700.4700307576175,-96.79340458100539
1700.546515467791,-96.6969065847161
1700.6230001779647,-96.60701708775895
1700.7575927028695,-96.46119718406526
1700.8921852277742,-96.32655039011277
1701.026777752679,-96.19957469685158
1701.2342497407283,-96.01456839216178
1701.4417217287776,-95.83877534472182
1701.6491937168269,-95.66972124195087
1702.0563046381355,-95.35164184231063
1702.4634155594442,-95.0478277455192
1702.870526480753,-94.75657738968503
1703.2776374020616,-94.4756484427419
1703.6847483233703,-94.20284541307252
1704.3286763491562,-93.78598996529416
1704.9726043749422,-93.38573920472122
1705.6165324007281,-93.00102109857175
1706.260460426514,-92.6306622703893
1707.262296603576,-92.08035551467462
1708.7732083255328,-91.30393814429917
1710.2841200474895,-90.58486938495005
1711.7950317694463,-89.91749733535896
1713.305943491403,-89.29721622908654
1714.8168552133598,-88.71979031152664
1717.183722999958,-87.89302625953985
1719.5505907865563,-87.15175692924437
1721.9174585731546,-86.48710998572258
1724.2843263597529,-85.89135118587714
1726.6511941463511,-85.35756865989461
1730.5768179951115,-84.59279018108113
1734.5024418438718,-83.95829704368313
1738.4280656926321,-83.43451905420504
1742.3536895413924,-83.00487798334358
1746.2793133901528,-82.65518218352014
1752.3931422000448,-82.24164865914325
1758.506971009937,-81.95573752592188
1764.620799819829,-81.76844456512241
1770.734628629721,-81.65696481480107
1776.8484574396132,-81.60303101323366
1782.9622862495053,-81.5921633783707
1792.377538390634,-81.63389872957592
1801.7927905317629,-81.72025610748594
1811.2080426728917,-81.83076556152841
1820.6232948140205,-81.95114995235424
1830.0385469551493,-82.07176238189169
1839.453799096278,-82.1864956150199
1848.869051237407,-82.29184582253443
1863.0366391086586,-82.42919535093007
1877.2042269799103,-82.5405572157093
1891.371814851162,-82.62819411662144
1905.5394027224138,-82.69550275615764
1919.7069905936655,-82.74600437347898
1933.8745784649172,-82.78306740361592
1948.042166336169,-82.80985199366927
1962.2097542074207,-82.82905348492028
1976.3773420786724,-82.84269250511784
1990.5449299499242,-82.85223399395117
1999.9999999999557,-82.85689565518845
2000.0000000000223,-82.85689565518845
2000.0000000000223,-82.85689565518845
