time,voltage
0.0,-80.0
0.000296636813297951,-79.99997654182957
0.0012788484127527024,-79.99989858896667
0.0036964872454988904,-79.9997052248938
0.007729556304279564,-79.99937933766994
0.01386763821850983,-79.99887730889704
0.020005720132740098,-79.99837027440228
0.030991625165715228,-79.99745410274319
0.048477316780374785,-79.99597915276361
0.08142760109044733,-79.9931970388133
0.11437788540051988,-79.99046796763533
0.14732816971059243,-79.9878479522097
0.18027845402066497,-79.98536414268393
0.23596465317956994,-79.98146625068038
0.2916508523384749,-79.97788963151632
0.3473370514973798,-79.97456413896985
0.44383609901078586,-79.96919704723736
0.5403351465241919,-79.96421264631394
0.6955058379007575,-79.95673674619073
0.8506765292773231,-79.94973782990095
1.12975493004387,-79.9380746234573
1.408833330810417,-79.92736679686983
1.687911731576964,-79.91752254457607
1.966990132343511,-79.90847263412796
2.246068533110058,-79.90010243351006
2.7364610928787654,-79.8866571858877
3.482468650147816,-79.86827005132582
4.2284762074168665,-79.8510998964811
4.9744837646859175,-79.83421433210044
5.7204913219549685,-79.81713185188985
6.4664988792240194,-79.79966046996228
7.686537229119633,-79.77026498388405
8.906575579015247,-79.74000808168731
10.12661392891086,-79.7093250158768
12.036342014388842,-79.66167198631203
13.946070099866823,-79.6159579304145
15.855798185344804,-79.5733894606686
19.067769644361572,-79.51069896829748
22.27974110337834,-79.46015204659372
25.491712562395104,-79.42152851562115
28.70368402141187,-79.39402990476263
31.915655480428637,-79.37671963173254
35.127626939445406,-79.3685703217651
40.05899915410312,-79.37133306649167
44.99037136876083,-79.38908112481585
49.92174358341855,-79.41827732571348
54.85311579807626,-79.45597300018144
63.166531317756295,-79.53180190328396
71.47994683743633,-79.61481761286218
79.79336235711637,-79.69786592467354
88.1067778767964,-79.7758447897529
96.42019339647644,-79.84569200532412
104.73360891615647,-79.90605653856011
113.0470244358365,-79.95647737795386
121.36043995551654,-79.99709212915988
129.67385547519658,-80.02864128399108
137.9872709948766,-80.05215928987467
146.30068651455665,-80.06888433214391
154.61410203423668,-80.08026740657235
162.92751755391672,-80.08749976453662
171.24093307359675,-80.09138648996934
179.55434859327679,-80.09275936910953
187.86776411295682,-80.09242172459555
196.18117963263686,-80.09094457667526
204.4945951523169,-80.08881813608922
212.80801067199693,-80.08636084217261
221.12142619167696,-80.08368223142303
229.434841711357,-80.0809970673763
237.74825723103703,-80.07856666394241
246.06167275071707,-80.0763904909873
254.3750882703971,-80.07435745722492
262.68850379007716,-80.07248819963195
271.0019193097572,-80.07085542466214
279.3153348294373,-80.06949218158118
287.62875034911735,-80.06836587310578
295.9421658687974,-80.06738835711828
304.2555813884775,-80.06654279952546
312.56899690815754,-80.06586760940037
320.8824124278376,-80.06533438848638
329.19582794751767,-80.06489447631398
337.50924346719773,-80.06453687767882
345.8226589868778,-80.06423811100869
354.13607450655786,-80.06399516386892
362.4494900262379,-80.06382068832812
370.762905545918,-80.06368447129958
379.07632106559805,-80.0635616696492
387.3897365852781,-80.06346989281936
395.7031521049582,-80.06339997054585
404.01656762463824,-80.06334159047552
412.3299831443183,-80.06330397554804
420.64339866399837,-80.06327461814129
428.95681418367843,-80.06324074498134
437.2702297033585,-80.06322253519609
449.77153774167294,-80.06321365568795
462.2728457799874,-80.06321475090265
474.77415381830184,-80.06324273636359
487.2754618566163,-80.06327621437708
499.77676989493074,-80.06325800376402
512.2780779332452,-80.06320719946225
524.7793859715596,-80.06316897019504
545.3029184488828,-80.06314745654073
565.826450926206,-80.06317217392804
586.3499834035292,-80.06321038467216
623.1552491178537,-80.06321287793804
659.9605148321782,-80.06318106062065
696.7657805465027,-80.06326118280765
700.0,-80.06326578353504
700.0,-80.06326578353504
700.0000524525366,-80.06326578372865
700.000136629178,-80.0632657840393
700.0003185384417,-80.06326578471045
700.0005004477053,-80.0632657853814
700.0008695056545,-80.06326578674205
700.0012385636036,-80.06326578810193
700.0021514037527,-80.06326579146193
700.0030642439018,-80.06326579481704
700.0039770840509,-80.06326579816749
700.0048899242,-80.0632658015132
700.0063207202991,-80.06326580674127
700.0077515163981,-80.06326581192056
700.0091823124972,-80.06326581695315
700.0115720002883,-80.06326582338684
700.0139616880795,-80.0632658221322
700.017714905452,-80.06326576106734
700.0214681228244,-80.06326549408811
700.02794069212,-80.06326307090045
700.0344132614155,-80.06325404619712
700.040885830711,-80.06322971820194
700.0473584000065,-80.06317604449029
700.053830969302,-80.06307369262902
700.0643421568026,-80.06274115453583
700.0748533443032,-80.06211049363237
700.0853645318037,-80.06107846428806
700.1014905554476,-80.05852144602
700.1176165790915,-80.05459320114865
700.1337426027354,-80.04918097311406
700.1633790136062,-80.03531028528623
700.193015424477,-80.0166448492811
700.2226518353478,-79.99373762292554
700.2522882462187,-79.96711711810595
700.2819246570895,-79.9372186410557
700.3115610679603,-79.90443354080541
700.3593615207002,-79.84641267084304
700.4071619734401,-79.78317353962053
700.45496242618,-79.71569976326448
700.50276287892,-79.64469115583374
700.5505633316599,-79.57066757856083
700.6300674148466,-79.44197223171538
700.7512048605292,-79.23504929683835
700.8723423062119,-79.0170821023344
700.9934797518945,-78.7891343563856
701.1146171975771,-78.55197684729238
701.2357546432597,-78.30621850451398
701.3568920889423,-78.05218276395621
701.478029534625,-77.78995269079272
701.6783677915145,-77.33823527731683
701.878706048404,-76.86323599184081
701.9287906126264,-76.74063717229548
701.9788751768488,-76.61640694665587
702.0289597410712,-76.49044333788665
702.0790443052936,-76.36257862147241
702.0915654463491,-76.33028845833846
702.1040865874047,-76.29785812061333
702.1235014647287,-76.24727986702707
702.1311390614633,-76.22728012997828
702.1387766581978,-76.2072193042558
702.1518207271292,-76.17280984756538
702.1648647960607,-76.13820174071319
702.1779088649921,-76.10337833104221
702.1909529339235,-76.06831865507824
702.1993906683255,-76.04550178260435
702.2078284027274,-76.0225659824013
702.2162661371293,-75.99950029566385
702.2247038715312,-75.97629140360652
702.2331416059332,-75.95292297680574
702.2387627702068,-75.9372568686097
702.2443839344804,-75.921504107162
702.2500050987541,-75.90565659784144
702.2556262630277,-75.88970516102418
702.2612474273013,-75.8736394825003
702.266868591575,-75.85744811332087
702.2724897558486,-75.84111853697267
702.2781109201222,-75.82463730367506
702.2865547896561,-75.79956374002302
702.2949986591899,-75.77406598017534
702.3034425287237,-75.74809313064164
702.3118863982576,-75.72159537738285
702.3203302677914,-75.69452569747178
702.3333229617297,-75.65165920426391
702.3463156556679,-75.60720499969493
702.3593083496062,-75.56105946719406
702.3723010435444,-75.51315098371312
702.3852937374827,-75.46343788602692
702.398286431421,-75.41190444597345
702.4112791253592,-75.35855658912124
702.4242718192975,-75.30341788313463
702.4372645132357,-75.24652567238107
702.450257207174,-75.1879272328618
702.4632499011122,-75.12767600909262
702.4762425950505,-75.06582806204099
702.4892352889888,-75.00243879033438
702.502227982927,-74.93755989105371
702.52207583527,-74.83566690250541
702.541923687613,-74.73050362465428
702.561771539956,-74.62210586229762
702.581619392299,-74.51040279540075
702.601467244642,-74.39517900022457
702.621315096985,-74.27602239895714
702.641162949328,-74.1522504805044
702.6522831670906,-74.08055188965176
702.6634033848532,-74.00685518208948
702.6745236026157,-73.9308517075285
702.6856438203783,-73.85217224463858
702.6967640381409,-73.7703826681983
702.7078842559035,-73.6849883410664
702.7190044736661,-73.59545008825735
702.7301246914287,-73.50121224723193
702.7412449091913,-73.40174005972588
702.7523651269539,-73.29656024933297
702.7634853447165,-73.18529665082505
702.7746055624791,-73.06769357295529
702.7857257802417,-72.94362317287838
702.7968459980043,-72.81307793488834
702.8079662157669,-72.67615318909998
702.8190864335295,-72.53302599634972
702.8302066512921,-72.38393562907031
702.8413268690547,-72.2291684130331
702.8524470868173,-72.06904723736262
702.8635673045799,-71.90392446716938
702.8746875223425,-71.73417647064798
702.8858077401051,-71.56019822891783
702.8969279578677,-71.38239715646493
702.9080481756303,-71.20118596259228
702.9191683933929,-71.0169748837179
702.9302886111554,-70.83016387828187
702.941408828918,-70.64113548386517
702.9581784930383,-70.35266347444092
702.9749481571586,-70.061073422594
702.9917178212788,-69.76733689885181
703.0084874853991,-69.4722744999894
703.0252571495193,-69.17657827829305
703.0420268136396,-68.88084175818786
703.0587964777599,-68.58558412984763
703.0755661418801,-68.29126407013419
703.0923358060004,-67.9982838879709
703.1091054701207,-67.70698732286827
703.1258751342409,-67.41765508271632
703.1426447983612,-67.13050097969752
703.1594144624814,-66.84566948591474
703.1761841266017,-66.56323462620341
703.192953790722,-66.28320061566879
703.2097234548422,-66.00550502294946
703.2264931189625,-65.73002456913959
703.2432627830827,-65.45658270374722
703.260032447203,-65.18495786415973
703.2768021113233,-64.91489176226489
703.2935717754435,-64.64609743455149
703.3103414395638,-64.37826680990585
703.327111103684,-64.11107750996125
703.3438807678043,-63.84419880816335
703.3606504319246,-63.577296912603835
703.3774200960448,-63.31003969347963
703.3941897601651,-63.04210079630596
703.4109594242854,-62.77316306675254
703.4277290884056,-62.50292131804804
703.4444987525259,-62.23108446925021
703.4612684166461,-61.957376958517145
703.4780380807664,-61.68153925329498
703.4948077448867,-61.40332730132011
703.5115774090069,-61.12251081304299
703.5283470731272,-60.838870283523704
703.5451167372474,-60.55219269097161
703.5618864013677,-60.26226590379391
703.578656065488,-59.968871988475705
703.5954257296082,-59.67177980867279
703.6121953937285,-59.370737528633335
703.6289650578487,-59.06546588123695
703.645734721969,-58.75565331808617
703.6625043860893,-58.44095438756981
703.6792740502095,-58.12099283004925
703.6960437143298,-57.79537086358752
703.71281337845,-57.463685863676545
703.7394348198067,-56.92379301075112
703.7660562611633,-56.36650952673741
703.7926777025199,-55.79131942059416
703.8192991438765,-55.19876216051532
703.8459205852331,-54.590676301819045
703.8725420265897,-53.970189744880166
703.8991634679463,-53.34143412419333
703.9257849093029,-52.70906374622293
703.9524063506595,-52.07774853531606
703.9790277920162,-51.45179270839019
704.0,-50.964894932219345
704.0,-50.964894932219345
704.00000023147,-50.96488959562574
704.0000433213185,-50.96389617996541
704.0001222863174,-50.962075781698374
704.0002928401477,-50.95814444008956
704.0005591566368,-50.952006887417795
704.0008254731258,-50.94587049809015
704.0013013786844,-50.93490729927096
704.001777284243,-50.9239474183996
704.0028895895952,-50.898346091709016
704.0040018949474,-50.872765140873994
704.0051142002995,-50.8472049032877
704.0062265056517,-50.82166561830587
704.0079157886704,-50.78291917653277
704.0096050716891,-50.74422228452077
704.0112943547077,-50.70557562436094
704.0141213884999,-50.64101470402956
704.0169484222921,-50.576599602703716
704.0214698101985,-50.47388837384888
704.0259911981049,-50.37156869000563
704.0336034964575,-50.20021988296875
704.0412157948102,-50.03007372713815
704.0488280931629,-49.86119075631171
704.0564403915156,-49.6936339840786
704.0640526898683,-49.527466676456605
704.0761752520419,-49.265856260654985
704.0882978142156,-49.008121361027875
704.1004203763893,-48.75441704243861
704.1187988677775,-48.37767368852991
704.1371773591658,-48.010553176123615
704.155555850554,-47.653015102158285
704.1739343419423,-47.304886355922974
704.1923128333306,-46.965928065020854
704.2106913247188,-46.63587000404184
704.2290698161071,-46.31441598470355
704.2474483074953,-46.00124439463137
704.2658267988836,-45.69601638918266
704.2842052902719,-45.39838720824912
704.3025837816601,-45.108013269837905
704.3209622730484,-44.824554515602934
704.3393407644367,-44.547675495313655
704.3577192558249,-44.277047066613406
704.3760977472132,-44.012348214245634
704.4039698697327,-43.621537311181335
704.4318419922522,-43.242608632780275
704.4597141147717,-42.87457748195922
704.4875862372912,-42.51652219011196
704.5154583598107,-42.16758661608548
704.5433304823302,-41.82697934066785
704.5712026048498,-41.49397092439501
704.5990747273693,-41.167890987288835
704.6269468498888,-40.84812224805185
704.6548189724083,-40.53409161837852
704.6969408116616,-40.06921712343982
704.739062650915,-39.614443858306835
704.7811844901684,-39.16800219834976
704.8233063294217,-38.72805791858986
704.8654281686751,-38.29259995486001
704.9075500079284,-37.85935347339109
704.9496718471818,-37.4257233955891
704.9917936864351,-36.98877055271386
705.0603369908154,-36.262041482542706
705.1288802951956,-35.50213992198669
705.1974235995758,-34.69284685245012
705.265966903956,-33.819416452608145
705.3345102083363,-32.87174739203631
705.4030535127165,-31.848338558370052
705.4495474734189,-31.115029136742912
705.4960414341213,-30.356240219082856
705.5425353948236,-29.579193930338043
705.589029355526,-28.792111609432943
705.6355233162284,-28.0027434014886
705.6820172769308,-27.21707794688468
705.7285112376331,-26.4385437667445
705.7750051983355,-25.66831188505409
705.8214991590379,-24.9061618787052
705.8679931197403,-24.151791535596143
705.9144870804427,-23.406037876703916
705.960981041145,-22.671705332308196
706.0074750018474,-21.95346906547913
706.0539689625498,-21.257042943907766
706.1004629232522,-20.588150278027413
706.1469568839545,-19.95191600776871
706.1934508446569,-19.352726008994985
706.2399448053593,-18.794320841983
706.2864387660617,-18.279865018839214
706.332932726764,-17.811907638112764
706.3794266874664,-17.392209764175025
706.4259206481688,-17.021477500861998
706.4724146088712,-16.69910904907366
706.5189085695736,-16.423101950692427
706.565402530276,-16.190197508083372
706.6118964909783,-15.996222651999696
706.6583904516807,-15.836514453427018
706.7048844123831,-15.706316261306615
706.7513783730855,-15.601081537453076
706.7978723337878,-15.516668782847377
706.8443662944902,-15.449441509250565
706.8908602551926,-15.396302185414692
706.937354215895,-15.354689895536666
707.0080650833576,-15.309049760128982
707.0787759508202,-15.280395147451374
707.1494868182828,-15.265762606324813
707.2201976857453,-15.263639699865386
707.2909085532079,-15.27343163781321
707.3616194206705,-15.295315212991392
707.4323302881331,-15.330251071503062
707.5030411555957,-15.379633703170905
707.5737520230583,-15.444620656464082
707.6444628905209,-15.525803849418493
707.7151737579835,-15.623533557606178
707.7858846254461,-15.738379310950666
707.8565954929087,-15.871142044481784
707.9273063603713,-16.022487918759143
707.9980172278339,-16.19263747367717
708.0687280952965,-16.38129508246866
708.1394389627591,-16.58769521418329
708.2101498302217,-16.81064216687669
708.2808606976843,-17.048570771333868
708.3515715651469,-17.299699923611467
708.4593710770495,-17.703977951748758
708.5671705889521,-18.12888751779412
708.6749701008547,-18.569065207358165
708.7827696127573,-19.019864281666063
708.8905691246599,-19.477341184222116
709.0551587076956,-20.18142140221903
709.2197482907312,-20.884528290008397
709.3843378737669,-21.580366745172647
709.5489274568025,-22.26464336896375
709.7135170398382,-22.93445172061085
709.8781066228738,-23.587843124701653
710.13410666933,-24.568887204473405
710.3901067157861,-25.505760668872146
710.6461067622423,-26.39953780951307
710.9021068086985,-27.253245026079295
711.1581068551546,-28.070869606173485
711.4141069016108,-28.856593599496772
711.670106948067,-29.614521153533495
712.0940860948476,-30.819475817475688
712.5180652416283,-31.97708681323532
712.9420443884089,-33.103554875159446
713.3660235351896,-34.2127475297698
713.7900026819702,-35.31586051936009
714.4281111167189,-36.98366614069773
715.0662195514676,-38.67668471275201
715.7043279862163,-40.400007272256026
716.342436420965,-42.14401901919612
716.9805448557137,-43.88947420809441
717.6186532904624,-45.61323650130598
718.256761725211,-47.29446864913903
718.8948701599597,-48.91624485192124
719.5329785947084,-50.46738820191884
720.5033516400762,-52.67883906925175
721.4737246854439,-54.709983814761664
722.4440977308117,-56.56821457370447
723.4144707761794,-58.26448349721331
724.3848438215472,-59.81035516281339
725.3552168669149,-61.217869275746544
726.3255899122827,-62.4992839876728
727.2959629576504,-63.666671496690256
728.2663360030182,-64.73153782082807
729.2367090483859,-65.70458520387544
730.2070820937537,-66.59560188289254
731.1774551391214,-67.4134656400343
732.1478281844892,-68.16615237728861
733.1182012298569,-68.86079157552086
734.0885742752247,-69.50370455669787
735.0589473205924,-70.10047818818002
736.0293203659602,-70.65601582161743
736.9996934113279,-71.17462439828071
737.9700664566957,-71.66006856426223
738.9404395020634,-72.11564511470101
739.9108125474312,-72.54424250175859
740.8811855927989,-72.94837816357793
741.8515586381667,-73.33023525890225
742.8219316835344,-73.69172970148148
743.7923047289022,-74.034552297856
744.76267777427,-74.36019332711425
746.2647327962773,-74.8332917419852
747.7667878182846,-75.27241149974178
749.2688428402919,-75.68108163163271
751.8747135938298,-76.32578559884816
754.4805843473678,-76.89947740127451
757.0864551009057,-77.41177690715277
761.1054387982138,-78.09788100004126
765.1244224955218,-78.6760834460962
769.1434061928298,-79.16253448075203
775.7193977802932,-79.79385070100459
782.2953893677566,-80.25791098585478
788.8713809552199,-80.58890636730742
795.4473725426833,-80.81530581243268
802.0233641301467,-80.96063230407188
808.59935571761,-81.0437867061874
815.1753473050734,-81.07988559423332
825.8011492809242,-81.06942668837908
836.4269512567749,-81.00674546195441
847.0527532326257,-80.91752632159111
857.6785552084765,-80.8188421552965
868.3043571843273,-80.72135721435733
878.930159160178,-80.63099941434965
889.5559611360288,-80.55047558140764
900.1817631118796,-80.48050641821338
910.8075650877304,-80.42075714410463
921.4333670635812,-80.37032569028833
932.0591690394319,-80.32808083214306
942.6849710152827,-80.29289357243417
953.3107729911335,-80.26365018662769
974.252130720475,-80.21976880953773
995.1934884498164,-80.18862853490734
999.9999999999778,-80.18275951445952
1000.0000000000111,-80.18275951445952
1000.0000000000111,-80.18275951445952
