time,voltage
0.0,6.5e-05
0.00039844483379380843,6.500000003767976e-05
0.001964038001880863,6.500000018573268e-05
0.005988562823539511,6.500000056631422e-05
0.013131061746685501,6.500000124173612e-05
0.024540008019524225,6.500000232058553e-05
0.035948954292362945,6.50000033994249e-05
0.05626287782583988,6.500000532030241e-05
0.08987412792370145,6.500000849850997e-05
0.1528875688674551,6.500001445607218e-05
0.21590100981120877,6.500002041233871e-05
0.27891445075496246,6.500002636641173e-05
0.3419278916987161,6.500003231788683e-05
0.45473219423135836,6.500004296363427e-05
0.5675364967640006,6.500005359765212e-05
0.7395424767936335,6.500006978538114e-05
0.9115484568232664,6.500008593780447e-05
1.083554436852899,6.500010205129582e-05
1.3658015095783091,6.500012839888463e-05
1.6480485823037192,6.500015462358619e-05
2.233473466989921,6.500020858458376e-05
2.818898351676123,6.500026190226251e-05
3.4043232363623246,6.500031454118313e-05
3.9897481210485264,6.500036645229634e-05
4.575173005734729,6.5000417614906e-05
5.5922610314233285,6.500050468678091e-05
6.609349057111928,6.500058941901527e-05
7.626437082800528,6.500067179043516e-05
9.200069589155982,6.50007946659114e-05
10.773702095511435,6.500091217329338e-05
13.212917282391277,6.500108442723294e-05
15.65213246927112,6.500124578088877e-05
18.091347656150962,6.50013976331969e-05
20.530562843030804,6.500154133090077e-05
22.969778029910646,6.500167813580266e-05
26.86995909467761,6.50018850953736e-05
30.770140159444573,6.500208073527515e-05
34.670321224211534,6.500226803571343e-05
38.570502288978496,6.500244893603888e-05
42.47068335374546,6.500262494627835e-05
46.37086441851242,6.500279715179645e-05
50.27104548327938,6.500296626860117e-05
54.17122654804634,6.500313268487726e-05
58.0714076128133,6.500329669912813e-05
61.971588677580264,6.500345842290665e-05
65.87176974234723,6.500361805909612e-05
69.7719508071142,6.500377555671442e-05
73.67213187188116,6.50039308512226e-05
77.57231293664813,6.50040838718012e-05
81.4724940014151,6.500423462494597e-05
85.37267506618207,6.500438305425351e-05
89.27285613094904,6.500452923084275e-05
93.173037195716,6.500467312558308e-05
97.07321826048297,6.500481473414413e-05
100.97339932524994,6.50049539109127e-05
104.87358039001691,6.500509072356007e-05
108.77376145478388,6.500522534927948e-05
112.67394251955085,6.500535770397356e-05
116.57412358431782,6.500548798144763e-05
120.47430464908479,6.500561623736895e-05
124.37448571385175,6.500574230527204e-05
128.27466677861872,6.500586620701148e-05
132.1748478433857,6.500598827919763e-05
136.07502890815266,6.500610855206445e-05
139.97520997291963,6.500622694687674e-05
143.8753910376866,6.500634349828015e-05
147.77557210245357,6.500645834815257e-05
151.67575316722053,6.500657154465552e-05
155.5759342319875,6.500668295926966e-05
159.47611529675447,6.50067927891273e-05
163.37629636152144,6.500690109165777e-05
167.2764774262884,6.50070080210655e-05
171.17665849105538,6.50071134858436e-05
175.07683955582235,6.500721740539818e-05
178.97702062058931,6.500731995478498e-05
182.87720168535628,6.500742111835631e-05
186.77738275012325,6.500752093208232e-05
190.67756381489022,6.500761943973827e-05
194.5777448796572,6.500771665601231e-05
198.47792594442416,6.500781249733762e-05
202.37810700919113,6.500790711877732e-05
206.2782880739581,6.500800057854966e-05
210.17846913872506,6.500809288941065e-05
214.07865020349203,6.500818384993858e-05
217.978831268259,6.500827375396521e-05
221.87901233302597,6.500836257467898e-05
225.77919339779294,6.500845018488214e-05
229.6793744625599,6.500853665630509e-05
233.57955552732687,6.500862195646098e-05
237.47973659209384,6.500870612990163e-05
241.3799176568608,6.50087892842643e-05
245.28009872162778,6.500887138962417e-05
249.18027978639475,6.500895231737154e-05
253.08046085116172,6.500903217113499e-05
256.9806419159287,6.500911102086744e-05
260.88082298069565,6.500918885559424e-05
264.7810040454626,6.500926565135447e-05
268.6811851102296,6.500934142197843e-05
272.58136617499656,6.500941627103205e-05
276.48154723976353,6.50094900732802e-05
280.3817283045305,6.50095628552198e-05
284.28190936929747,6.500963467426181e-05
288.18209043406443,6.500970559623553e-05
292.0822714988314,6.50097755880046e-05
295.9824525635984,6.500984465368364e-05
299.88263362836534,6.500991272962882e-05
303.7828146931323,6.500997994605071e-05
307.6829957578993,6.50100462777848e-05
311.58317682266625,6.501011173353074e-05
315.4833578874332,6.501017628730843e-05
319.3835389522002,6.501023992280028e-05
323.28372001696715,6.501030271043315e-05
327.1839010817341,6.50103646489469e-05
331.0840821465011,6.501042578260322e-05
334.98426321126806,6.501048613458478e-05
338.884444276035,6.501054565726387e-05
342.784625340802,6.50106043445398e-05
346.68480640556896,6.501066223141316e-05
350.58498747033593,6.501071936632488e-05
354.4851685351029,6.501077572738766e-05
358.38534959986987,6.501083131367228e-05
362.28553066463684,6.501088613701723e-05
366.1857117294038,6.501094021084314e-05
370.0858927941708,6.501099352668902e-05
373.98607385893774,6.50110461392731e-05
377.8862549237047,6.501109802099695e-05
381.7864359884717,6.501114919251738e-05
385.68661705323865,6.501119965457531e-05
389.5867981180056,6.501124943326249e-05
393.4869791827726,6.501129855077527e-05
397.38716024753955,6.501134698442522e-05
401.2873413123065,6.501139475442413e-05
405.1875223770735,6.501144185458348e-05
409.08770344184046,6.501148830410638e-05
412.98788450660743,6.50115341151618e-05
416.8880655713744,6.50115793204884e-05
420.78824663614137,6.501162391922009e-05
424.68842770090833,6.501166791436133e-05
428.5886087656753,6.501171131423609e-05
432.4887898304423,6.501175411410694e-05
436.38897089520924,6.501179633529024e-05
440.2891519599762,6.501183797204088e-05
444.1893330247432,6.501187905700462e-05
448.08951408951015,6.501191956297454e-05
451.9896951542771,6.501195956101549e-05
455.8898762190441,6.50119989872821e-05
459.79005728381105,6.501203787210234e-05
463.690238348578,6.501207626768533e-05
467.590419413345,6.50121141232875e-05
471.49060047811196,6.501215149417995e-05
475.3907815428789,6.501218841118922e-05
479.2909626076459,6.501222481589166e-05
483.19114367241286,6.501226070142679e-05
487.09132473717983,6.501229611439774e-05
490.9915058019468,6.501233108701634e-05
494.89168686671377,6.501236556944748e-05
498.79186793148074,6.50123995807737e-05
502.6920489962477,6.501243312276134e-05
506.5922300610147,6.501246618637659e-05
510.49241112578164,6.501249880288798e-05
514.3925921905486,6.501253097015546e-05
518.2927732553155,6.50125627451848e-05
522.1929543200824,6.501259407055319e-05
526.0931353848493,6.501262499455723e-05
529.9933164496163,6.501265541757909e-05
532.6985128502015,6.501267625782606e-05
535.4037092507867,6.501269694039296e-05
538.108905651372,6.501271743067667e-05
540.8141020519572,6.501273772413934e-05
543.5192984525424,6.50127578344373e-05
546.2244948531277,6.501277773135929e-05
548.9296912537129,6.501279743344302e-05
551.6348876542982,6.50128169663595e-05
554.3400840548834,6.501283633687278e-05
557.0452804554686,6.501285549474633e-05
559.7504768560539,6.501287447688109e-05
562.4556732566391,6.501289327778958e-05
564.3295113289348,6.501290619742926e-05
566.2033494012305,6.501291904025721e-05
568.0771874735262,6.501293179740857e-05
571.1718544923053,6.501295268731651e-05
574.2665215110844,6.501297338803773e-05
577.3611885298635,6.50129938336764e-05
580.4558555486426,6.501301401899156e-05
583.5505225674217,6.501303400380187e-05
586.6451895862008,6.501305377054896e-05
589.7398566049799,6.501307329916247e-05
592.834523623759,6.501309258749818e-05
595.9291906425381,6.501311172765298e-05
598.0710226484506,6.501312487137914e-05
600.2128546543631,6.501313789557215e-05
602.3546866602757,6.501315081506422e-05
604.4965186661882,6.501316363678142e-05
606.6383506721007,6.501317635787983e-05
608.7801826780133,6.501318898989944e-05
610.9220146839258,6.501320153272928e-05
613.0638466898383,6.501321398053693e-05
615.2056786957509,6.50132263319878e-05
617.3475107016634,6.501323859106315e-05
619.4893427075759,6.50132507591426e-05
622.7517286610243,6.501326911583671e-05
626.0141146144728,6.501328726213671e-05
629.2765005679212,6.501330519825364e-05
632.5388865213696,6.501332293451017e-05
635.801272474818,6.501334046709985e-05
639.0636584282664,6.50133578037183e-05
642.3260443817148,6.501337493954763e-05
645.5884303351633,6.50133918852393e-05
648.8508162886117,6.50134086340827e-05
652.1132022420601,6.50134251975186e-05
655.3755881955085,6.501344156670834e-05
658.6379741489569,6.501345775573486e-05
661.9003601024053,6.501347375361794e-05
665.1627460558537,6.50134895769538e-05
668.4251320093022,6.50135052199119e-05
671.6875179627506,6.501352068325051e-05
674.949903916199,6.501353596992138e-05
678.2122898696474,6.50135510887573e-05
681.4746758230958,6.5013566031355e-05
684.7370617765442,6.50135808077854e-05
687.9994477299927,6.501359541701113e-05
691.2618336834411,6.50136098596654e-05
697.6035419212263,6.501363747174197e-05
700.0,6.501364774683844e-05
700.0,6.501364774683844e-05
700.0000693142402,6.501364774713427e-05
700.0001938428442,6.501364774766576e-05
700.000522085762,6.50136477490667e-05
700.0008503286798,6.501364775046764e-05
700.0015409408652,6.501364775341518e-05
700.0022315530506,6.50136477563627e-05
700.0039461804208,6.501364776368064e-05
700.0056608077911,6.501364777099842e-05
700.0073754351613,6.501364777831585e-05
700.0090900625315,6.501364778563252e-05
700.0117660285397,6.501364779704853e-05
700.0144419945478,6.501364780845863e-05
700.0185697522669,6.501364782603904e-05
700.022697509986,6.50136478435854e-05
700.026825267705,6.501364786108696e-05
700.0335132745745,6.50136478893242e-05
700.040201281444,6.5013647917395e-05
700.0523767672323,6.501364796803282e-05
700.0645522530207,6.501364801804639e-05
700.076727738809,6.501364806749569e-05
700.0889032245974,6.501364811644828e-05
700.1010787103858,6.501364816500276e-05
700.1209115383327,6.501364824358215e-05
700.1407443662797,6.501364832200545e-05
700.1605771942267,6.501364840085395e-05
700.1916604332736,6.501364852675612e-05
700.2227436723205,6.501364865757044e-05
700.2538269113674,6.501364879572359e-05
700.3137809056981,6.501364909209882e-05
700.3737349000288,6.501364944343106e-05
700.4336888943595,6.501364986848858e-05
700.4936428886903,6.50136503877103e-05
700.553596883021,6.501365102230717e-05
700.6443731920314,6.501365225426513e-05
700.7351495010417,6.501365389187314e-05
700.8259258100521,6.501365603699179e-05
700.9167021190625,6.501365880849407e-05
701.0074784280729,6.501366234729428e-05
701.1626171904936,6.501367067925375e-05
701.3177559529144,6.501368287974718e-05
701.4728947153351,6.501370052413728e-05
701.6280334777558,6.50137259438833e-05
701.7831722401766,6.50137627963237e-05
701.9383110025973,6.501381719896493e-05
702.093449765018,6.501390198817485e-05
702.1322344556232,6.501393045647177e-05
702.1710191462284,6.501396339862313e-05
702.2098038368337,6.501400225037615e-05
702.2485885274389,6.501404934885502e-05
702.2873732180441,6.501410930177397e-05
702.3134528949238,6.501416278879073e-05
702.3395325718035,6.501423796974764e-05
702.3460524910234,6.501426316041472e-05
702.3525724102434,6.501429381327202e-05
702.3590923294634,6.501433214499023e-05
702.3720902327836,6.501446165065752e-05
702.385088136104,6.501477330688134e-05
702.3925096500751,6.501512979156527e-05
702.3999311640463,6.501576506196345e-05
702.4073526780174,6.501687875800269e-05
702.4147741919886,6.50187557189015e-05
702.4221957059598,6.502175591253546e-05
702.4267588934234,6.502430729565124e-05
702.4313220808871,6.50275236395649e-05
702.4358852683507,6.503151318259423e-05
702.4404484558144,6.503638323900823e-05
702.445011643278,6.50422386420769e-05
702.4495748307417,6.504918042476014e-05
702.4541380182053,6.505730553730754e-05
702.4619243160707,6.507416569664588e-05
702.4697106139362,6.509515840162066e-05
702.4774969118016,6.512068668248671e-05
702.485283209667,6.515112478000726e-05
702.4930695075325,6.518679528000874e-05
702.5008558053979,6.522798309198543e-05
702.5086421032634,6.527495144378677e-05
702.5164284011288,6.532794111037064e-05
702.5242146989942,6.53871662613379e-05
702.5320009968597,6.545281303762684e-05
702.5397872947251,6.552503864703546e-05
702.5475735925905,6.56039719819454e-05
702.555359890456,6.568971539757476e-05
702.5631461883214,6.5782345469623e-05
702.5709324861868,6.588191445050302e-05
702.5787187840523,6.598844948376781e-05
702.5865050819177,6.610195522896404e-05
702.5942913797832,6.622241675736898e-05
702.6020776776486,6.63498005347483e-05
702.609863975514,6.648405614184114e-05
702.6176502733795,6.662511882772177e-05
702.6254365712449,6.677291174520243e-05
702.6332228691103,6.692734804466224e-05
702.6410091669758,6.708833275077414e-05
702.6487954648412,6.725576473364785e-05
702.6565817627067,6.742953792924242e-05
702.6643680605721,6.760954303798603e-05
702.6721543584375,6.77956690243101e-05
702.6771990100328,6.791947249393705e-05
702.6822436616281,6.804576767190783e-05
702.6872883132235,6.817452416251286e-05
702.6923329648188,6.830571164824965e-05
702.6973776164141,6.843929995956069e-05
702.7024222680094,6.8575259153901e-05
702.7074669196047,6.87135595582518e-05
702.7125115712,6.885417179514651e-05
702.7175562227953,6.899706680365399e-05
702.7226008743907,6.914221585562952e-05
702.727645525986,6.928959056785347e-05
702.7326901775813,6.943916290927308e-05
702.7377348291766,6.959090520262845e-05
702.7427794807719,6.974479012136222e-05
702.7478241323672,6.990079068281484e-05
702.7528687839625,7.005888023807717e-05
702.7579134355578,7.02190324588625e-05
702.7629580871532,7.038122132209419e-05
702.7680027387485,7.054542109482257e-05
702.7730473903438,7.071160631257593e-05
702.7780920419391,7.087975176713086e-05
702.7831366935344,7.104983249004918e-05
702.7881813451297,7.122182373864795e-05
702.793225996725,7.13957010007506e-05
702.7982706483203,7.157144000345108e-05
702.8033152999157,7.174901673080266e-05
702.808359951511,7.19284074635655e-05
702.8134046031063,7.210958884259661e-05
702.8184492547016,7.229253795449615e-05
702.8234939062969,7.247723243866236e-05
702.8285385578922,7.266365061278913e-05
702.8335832094875,7.285177160925698e-05
702.8386278610828,7.304157550965394e-05
702.8436725126782,7.323304346130927e-05
702.8487171642735,7.342615775954489e-05
702.8537618158688,7.362090188195028e-05
702.8588064674641,7.38172604658281e-05
702.8638511190594,7.401521922683176e-05
702.8688957706547,7.421476482476097e-05
702.87394042225,7.441588468947104e-05
702.8789850738453,7.46185668211122e-05
702.8840297254407,7.482279960036546e-05
702.889074377036,7.5028571594998e-05
702.8941190286313,7.523587136055577e-05
702.8991636802266,7.54446873353929e-05
702.9042083318219,7.565500774269279e-05
702.9092529834172,7.586682051120292e-05
702.9142976350125,7.608011322975359e-05
702.9193422866078,7.629487313001672e-05
702.9243869382032,7.651108708843938e-05
702.9294315897985,7.672874164066194e-05
702.9344762413938,7.694782300428478e-05
702.9395208929891,7.716831710712264e-05
702.9445655445844,7.739020961838647e-05
702.9496101961797,7.761348598056897e-05
702.954654847775,7.78381314405477e-05
702.9596994993703,7.806413107909264e-05
702.9647441509657,7.829146983824402e-05
702.969788802561,7.852013254614745e-05
702.9748334541563,7.875010393917799e-05
702.9798781057516,7.898136868013068e-05
702.9849227573469,7.921391137826902e-05
702.9899674089422,7.944771660447944e-05
702.9950120605375,7.968276890076481e-05
703.0000567121328,7.991905279231763e-05
703.0051013637282,8.015655279784852e-05
703.0101460153235,8.039525343798505e-05
703.0151906669188,8.063513924203293e-05
703.0202353185141,8.087619475375199e-05
703.0252799701094,8.111840453642478e-05
703.0303246217047,8.136175317728837e-05
703.0353692733,8.16062252914106e-05
703.0404139248953,8.185180552515935e-05
703.0454585764907,8.209847855939845e-05
703.050503228086,8.234622911249559e-05
703.0555478796813,8.259504194323174e-05
703.0605925312766,8.284490185373857e-05
703.0656371828719,8.309579369259756e-05
703.0706818344672,8.334770235820298e-05
703.0757264860625,8.360061280246672e-05
703.0807711376578,8.385451003521284e-05
703.0858157892532,8.41093791283674e-05
703.0908604408485,8.436520522096183e-05
703.0959050924438,8.462197352575465e-05
703.1009497440391,8.487966933638196e-05
703.1059943956344,8.513827803442384e-05
703.1110390472297,8.539778509786719e-05
703.116083698825,8.565817611074015e-05
703.1211283504203,8.591943677377466e-05
703.1261730020157,8.618155291598228e-05
703.131217653611,8.644451050723824e-05
703.1362623052063,8.670829567192783e-05
703.1413069568016,8.697289470362959e-05
703.1463516083969,8.7238294080753e-05
703.1513962599922,8.75044804830391e-05
703.1564409115875,8.777144080882806e-05
703.1614855631829,8.803916219297882e-05
703.1665302147782,8.830763202529536e-05
703.1715748663735,8.857683796928253e-05
703.1766195179688,8.884676798102823e-05
703.1816641695641,8.911741032785516e-05
703.1867088211594,8.938875360696324e-05
703.1917534727547,8.96607867636349e-05
703.19679812435,8.993349910742142e-05
703.2018427759454,9.020688032813389e-05
703.2068874275407,9.048092051022984e-05
703.211932079136,9.075561014537632e-05
703.2169767307313,9.103094014276933e-05
703.2220213823266,9.130690183701859e-05
703.2270660339219,9.158348699327477e-05
703.2321106855172,9.186068780928738e-05
703.2371553371125,9.213849691407277e-05
703.2421999887079,9.241690736290151e-05
703.2472446403032,9.269591262832006e-05
703.2522892918985,9.297550658693298e-05
703.2573339434938,9.325568350168833e-05
703.2623785950891,9.353643799943531e-05
703.2674232466844,9.381776504354528e-05
703.2724678982797,9.409965990140737e-05
703.277512549875,9.438211810663258e-05
703.2825572014704,9.466513541336078e-05
703.2876018530657,9.49487077521329e-05
703.292646504661,9.523283117712955e-05
703.2976911562563,9.551750180131532e-05
703.3027358078516,9.580271572776017e-05
703.3077804594469,9.608846898305093e-05
703.3128251110422,9.637475744198565e-05
703.3178697626375,9.666157674511358e-05
703.3229144142329,9.694892221100862e-05
703.3279590658282,9.723678874539893e-05
703.3330037174235,9.752517074678826e-05
703.3380483690188,9.781406200846247e-05
703.3430930206141,9.810345561755449e-05
703.3481376722094,9.839334385242215e-05
703.3531823238047,9.868371807946278e-05
703.3582269754,9.897456865031758e-05
703.3632716269954,9.926588480044146e-05
703.3683162785907,9.955765455013402e-05
703.373360930186,9.984986460913826e-05
703.3784055817813,0.00010014250028579371
703.3834502333766,0.00010043554540388122
703.3884948849719,0.00010072898221776878
703.3935395365672,0.00010102279133817535
703.3985841881625,0.00010131695167696772
703.4036288397579,0.00010161144038038644
703.4086734913532,0.00010190623277899623
703.4137181429485,0.00010220130234303558
703.4187627945438,0.00010249662064714074
703.4238074461391,0.00010279215734431903
703.4288520977344,0.00010308788015127428
703.4338967493297,0.00010338375484593433
703.438941400925,0.00010367974527870661
703.4439860525204,0.000103975813399255
703.4490307041157,0.00010427191930062387
703.454075355711,0.00010456802128205452
703.4591200073063,0.0001048640759312142
703.4641646589016,0.00010516003821001348
703.4692093104969,0.00010545586156871156
703.4742539620922,0.00010575149810300894
703.4792986136875,0.00010604689871280031
703.4843432652829,0.00010634201324742115
703.4893879168782,0.00010663679066629962
703.4944325684735,0.00010693117924307546
703.4994772200688,0.00010722512678991112
703.5045218716641,0.00010751858087312392
703.5095665232594,0.00010781148895383815
703.5146111748547,0.00010810379861353406
703.51965582645,0.00010839545775227973
703.5247004780454,0.0001086864147490193
703.5297451296407,0.00010897661861330307
703.534789781236,0.0001092660191321968
703.5398344328313,0.00010955456699431966
703.5448790844266,0.00010984221392635034
703.5499237360219,0.00011012891280112311
703.5549683876172,0.00011041461771360531
703.5600130392125,0.00011069928405317331
703.5650576908079,0.00011098286857457865
703.5701023424032,0.00011126532944924558
