time,voltage
0.0,6.5e-05
0.00039844483379380843,6.500000007731387e-05
0.001964038001880863,6.500000038109328e-05
0.005988562823539511,6.500000116194621e-05
0.013131061746685501,6.500000254763456e-05
0.024540008019524225,6.500000476076159e-05
0.035948954292362945,6.500000697362748e-05
0.05626287782583988,6.50000109130972e-05
0.08987412792370145,6.500001742929497e-05
0.1528875688674551,6.500002963741403e-05
0.21590100981120877,6.500004183380105e-05
0.27891445075496246,6.50000540174528e-05
0.3419278916987161,6.500006618761234e-05
0.45473219423135836,6.500008793731164e-05
0.5675364967640006,6.500010963833744e-05
0.7395424767936335,6.500014262741355e-05
0.9115484568232664,6.500017549056923e-05
1.083554436852899,6.50002082221077e-05
1.3658015095783091,6.500026163252395e-05
1.6480485823037192,6.500031465956961e-05
2.233473466989921,6.500042335744203e-05
2.818898351676123,6.500053022288187e-05
3.4043232363623246,6.500063519671949e-05
3.9897481210485264,6.500073820293083e-05
4.575173005734729,6.500083921122676e-05
5.5922610314233285,6.500100991166183e-05
6.609349057111928,6.500117450035005e-05
7.626437082800528,6.500133300271848e-05
9.200069589155982,6.500156652429199e-05
10.773702095511435,6.500178634304031e-05
13.212917282391277,6.500210181195296e-05
15.65213246927112,6.50023893659887e-05
18.091347656150962,6.500265230575207e-05
20.530562843030804,6.500289383141861e-05
22.969778029910646,6.500311685989034e-05
26.86995909467761,6.50034410673891e-05
30.770140159444573,6.500373262126618e-05
34.670321224211534,6.500399836845104e-05
38.570502288978496,6.500424303555322e-05
42.47068335374546,6.500447030123886e-05
46.37086441851242,6.500468277999758e-05
50.27104548327938,6.500488228304098e-05
54.17122654804634,6.500507009879873e-05
58.0714076128133,6.500524717673286e-05
61.971588677580264,6.500541420564853e-05
65.87176974234723,6.500557172279369e-05
69.7719508071142,6.500572011956797e-05
73.67213187188116,6.500585974287267e-05
77.57231293664813,6.500599093571816e-05
81.4724940014151,6.500611401367389e-05
85.37267506618207,6.500622928647191e-05
89.27285613094904,6.500633707092713e-05
93.173037195716,6.500643771522589e-05
97.07321826048297,6.50065315894458e-05
100.97339932524994,6.500661907582701e-05
104.87358039001691,6.500670053108165e-05
108.77376145478388,6.500677632440861e-05
112.67394251955085,6.500684679728056e-05
116.57412358431782,6.50069123469651e-05
120.47430464908479,6.500697335036891e-05
124.37448571385175,6.500703010919034e-05
128.27466677861872,6.500708290262049e-05
132.1748478433857,6.500713207257091e-05
136.07502890815266,6.50071779528534e-05
139.97520997291963,6.50072207929124e-05
143.8753910376866,6.500726080927296e-05
147.77557210245357,6.500729823491044e-05
151.67575316722053,6.500733332739057e-05
155.5759342319875,6.500736626639923e-05
159.47611529675447,6.500739721675677e-05
163.37629636152144,6.50074263451687e-05
167.2764774262884,6.500745384046514e-05
171.17665849105538,6.500747982082955e-05
175.07683955582235,6.50075043923974e-05
178.97702062058931,6.5007527687027e-05
182.87720168535628,6.500754978173157e-05
186.77738275012325,6.500757075455002e-05
190.67756381489022,6.500759068603053e-05
194.5777448796572,6.500760967306611e-05
198.47792594442416,6.500762775167459e-05
202.37810700919113,6.500764497370762e-05
206.2782880739581,6.500766141460318e-05
210.17846913872506,6.500767714441696e-05
214.07865020349203,6.500769216580852e-05
217.978831268259,6.500770652483288e-05
221.87901233302597,6.500772026241417e-05
225.77919339779294,6.500773340601978e-05
229.6793744625599,6.500774599851892e-05
233.57955552732687,6.500775802994643e-05
237.47973659209384,6.500776952173566e-05
241.3799176568608,6.50077805240855e-05
245.28009872162778,6.500779106711138e-05
249.18027978639475,6.500780113753505e-05
253.08046085116172,6.500781074100106e-05
256.9806419159287,6.500781991612647e-05
260.88082298069565,6.500782869065642e-05
264.7810040454626,6.500783707715813e-05
268.6811851102296,6.500784507937828e-05
272.58136617499656,6.500785272741376e-05
276.48154723976353,6.500786002923969e-05
280.3817283045305,6.500786699352234e-05
284.28190936929747,6.500787363091672e-05
288.18209043406443,6.50078799485959e-05
292.0822714988314,6.500788596035878e-05
295.9824525635984,6.500789168537175e-05
299.88263362836534,6.500789714211313e-05
303.7828146931323,6.500790234551416e-05
307.6829957578993,6.500790729788775e-05
311.58317682266625,6.500791201368629e-05
315.4833578874332,6.500791650849358e-05
319.3835389522002,6.500792079286426e-05
323.28372001696715,6.500792488427458e-05
327.1839010817341,6.500792876090965e-05
331.0840821465011,6.500793243839899e-05
334.98426321126806,6.500793594105047e-05
338.884444276035,6.500793926540145e-05
342.784625340802,6.500794240200513e-05
346.68480640556896,6.500794536182056e-05
350.58498747033593,6.500794817500265e-05
354.4851685351029,6.500795084571164e-05
358.38534959986987,6.500795337166063e-05
362.28553066463684,6.500795576322084e-05
366.1857117294038,6.500795803356038e-05
370.0858927941708,6.500796018687014e-05
373.98607385893774,6.500796222269597e-05
377.8862549237047,6.500796414525342e-05
381.7864359884717,6.500796596446534e-05
385.68661705323865,6.500796768292147e-05
389.5867981180056,6.500796930151543e-05
393.4869791827726,6.500797082270304e-05
397.38716024753955,6.500797224468246e-05
401.2873413123065,6.50079735856536e-05
405.1875223770735,6.500797484806162e-05
409.08770344184046,6.50079760331737e-05
412.98788450660743,6.500797714734776e-05
416.8880655713744,6.500797820389406e-05
420.78824663614137,6.500797920966891e-05
424.68842770090833,6.500798016352262e-05
428.5886087656753,6.500798106334064e-05
432.4887898304423,6.500798190615202e-05
436.38897089520924,6.500798270021516e-05
440.2891519599762,6.500798344863595e-05
444.1893330247432,6.500798415669778e-05
448.08951408951015,6.50079848230535e-05
451.9896951542771,6.500798545885546e-05
455.8898762190441,6.500798606170529e-05
459.79005728381105,6.500798663760016e-05
463.690238348578,6.500798719018382e-05
467.590419413345,6.500798770690067e-05
471.49060047811196,6.500798820092718e-05
475.3907815428789,6.500798868612209e-05
479.2909626076459,6.500798915178527e-05
483.19114367241286,6.50079895890389e-05
487.09132473717983,6.500799000063877e-05
490.9915058019468,6.500799040920686e-05
494.89168686671377,6.500799080337718e-05
498.79186793148074,6.500799117176045e-05
502.6920489962477,6.500799152064799e-05
506.5922300610147,6.500799185653435e-05
510.49241112578164,6.500799218849958e-05
514.3925921905486,6.500799250214793e-05
518.2927732553155,6.500799280408597e-05
522.1929543200824,6.500799309451971e-05
526.0931353848493,6.500799337671411e-05
529.9933164496163,6.500799363132949e-05
532.6985128502015,6.50079937941224e-05
535.4037092507867,6.50079939522783e-05
538.108905651372,6.500799410069873e-05
540.8141020519572,6.500799424055796e-05
543.5192984525424,6.500799437472646e-05
546.2244948531277,6.500799450350451e-05
548.9296912537129,6.500799462337137e-05
551.6348876542982,6.500799473723744e-05
554.3400840548834,6.50079948511963e-05
557.0452804554686,6.500799496043005e-05
559.7504768560539,6.500799506299943e-05
562.4556732566391,6.500799515858702e-05
564.3295113289348,6.500799522263355e-05
566.2033494012305,6.500799528552186e-05
568.0771874735262,6.500799534560052e-05
571.1718544923053,6.500799544083589e-05
574.2665215110844,6.500799553420574e-05
577.3611885298635,6.500799562011433e-05
580.4558555486426,6.500799569055087e-05
583.5505225674217,6.500799574902933e-05
586.6451895862008,6.500799580679234e-05
589.7398566049799,6.500799586197898e-05
592.834523623759,6.500799590261707e-05
595.9291906425381,6.500799593719122e-05
598.0710226484506,6.500799596093003e-05
600.2128546543631,6.500799598330555e-05
602.3546866602757,6.500799600561728e-05
604.4965186661882,6.500799602760959e-05
606.6383506721007,6.500799604883958e-05
608.7801826780133,6.5007996070012e-05
610.9220146839258,6.500799609170974e-05
613.0638466898383,6.500799611320419e-05
615.2056786957509,6.500799613361668e-05
617.3475107016634,6.500799615270067e-05
619.4893427075759,6.500799617129385e-05
622.7517286610243,6.500799619747107e-05
626.0141146144728,6.500799622174119e-05
629.2765005679212,6.500799624413453e-05
632.5388865213696,6.500799626582211e-05
635.801272474818,6.500799628635406e-05
639.0636584282664,6.500799630646032e-05
642.3260443817148,6.500799632548088e-05
645.5884303351633,6.50079963443985e-05
648.8508162886117,6.500799636231436e-05
652.1132022420601,6.500799638017316e-05
655.3755881955085,6.500799639669526e-05
658.6379741489569,6.500799641306131e-05
661.9003601024053,6.500799642783342e-05
665.1627460558537,6.500799644254239e-05
668.4251320093022,6.500799645631542e-05
671.6875179627506,6.500799646898951e-05
674.949903916199,6.500799648171826e-05
678.2122898696474,6.500799649556958e-05
681.4746758230958,6.500799650943187e-05
684.7370617765442,6.500799652377783e-05
687.9994477299927,6.500799653816883e-05
691.2618336834411,6.50079965523155e-05
697.6035419212263,6.500799658006336e-05
700.0,6.500799658951421e-05
700.0,6.500799658951421e-05
700.0000693142402,6.500799658951448e-05
700.0001938428442,6.500799658951496e-05
700.000522085762,6.500799658951622e-05
700.0008503286798,6.500799658951748e-05
700.0015409408652,6.500799658952008e-05
700.0022315530506,6.500799658952248e-05
700.0039461804208,6.500799658952512e-05
700.0056608077911,6.500799658952093e-05
700.0073754351613,6.500799658950352e-05
700.0090900625315,6.500799658946693e-05
700.0117660285397,6.5007996589356e-05
700.0144419945478,6.500799658916911e-05
700.0185697522669,6.50079965886991e-05
700.022697509986,6.500799658800175e-05
700.026825267705,6.500799658707115e-05
700.0335132745745,6.500799658505863e-05
700.040201281444,6.500799658246241e-05
700.0523767672323,6.500799657642464e-05
700.0645522530207,6.500799656891655e-05
700.076727738809,6.500799656038693e-05
700.0889032245974,6.500799655119066e-05
700.1010787103858,6.500799654171725e-05
700.1209115383327,6.500799652668949e-05
700.1407443662797,6.500799651353298e-05
700.1605771942267,6.500799650374814e-05
700.1916604332736,6.500799649856614e-05
700.2227436723205,6.500799651048033e-05
700.2538269113674,6.500799654471229e-05
700.3137809056981,6.50079966929573e-05
700.3737349000288,6.500799698044529e-05
700.4336888943595,6.500799744707647e-05
700.4936428886903,6.500799813197022e-05
700.553596883021,6.500799907980082e-05
700.6443731920314,6.500800112552057e-05
700.7351495010417,6.500800407405395e-05
700.8259258100521,6.500800813904665e-05
700.9167021190625,6.50080135713852e-05
701.0074784280729,6.500802067007637e-05
701.1626171904936,6.500803772493014e-05
701.3177559529144,6.500806302057607e-05
701.4728947153351,6.500809967573868e-05
701.6280334777558,6.500815201697148e-05
701.7831722401766,6.500822611674394e-05
701.9383110025973,6.500833054957588e-05
702.093449765018,6.500847764069625e-05
702.1322344556232,6.500852293836207e-05
702.1710191462284,6.50085723267633e-05
702.2098038368337,6.500862620413873e-05
702.2485885274389,6.500868501510113e-05
702.2873732180441,6.50087492673197e-05
702.3134528949238,6.500879582486625e-05
702.3395325718035,6.500884532083865e-05
702.3460524910234,6.500885818118075e-05
702.3525724102434,6.500887124426736e-05
702.3590923294634,6.500888451453025e-05
702.3720902327836,6.500891160717314e-05
702.385088136104,6.500893958307851e-05
702.3925096500751,6.500895596983705e-05
702.3999311640463,6.500897266916683e-05
702.4073526780174,6.500898969219388e-05
702.4147741919886,6.500900705136978e-05
702.4221957059598,6.50090247614553e-05
702.4267588934234,6.500903583223631e-05
702.4313220808871,6.500904704683737e-05
702.4358852683507,6.500905841046368e-05
702.4404484558144,6.500906992886883e-05
702.445011643278,6.500908160841841e-05
702.4495748307417,6.500909345611489e-05
702.4541380182053,6.500910547960815e-05
702.4619243160707,6.500912642581807e-05
702.4697106139362,6.500914795429838e-05
702.4774969118016,6.500917011629231e-05
702.485283209667,6.500919296977845e-05
702.4930695075325,6.500921657976305e-05
702.5008558053979,6.500924101857698e-05
702.5086421032634,6.500926636655365e-05
702.5164284011288,6.500929271291658e-05
702.5242146989942,6.500932015668857e-05
702.5320009968597,6.500934880758595e-05
702.5397872947251,6.500937878691923e-05
702.5475735925905,6.500941022849903e-05
702.555359890456,6.500944327950356e-05
702.5631461883214,6.500947810155338e-05
702.5709324861868,6.500951487145825e-05
702.5787187840523,6.500955378228353e-05
702.5865050819177,6.500959504439821e-05
702.5942913797832,6.500963888661474e-05
702.6020776776486,6.50096855574746e-05
702.609863975514,6.500973532670942e-05
702.6176502733795,6.500978848700864e-05
702.6254365712449,6.500984535570593e-05
702.6332228691103,6.500990627747426e-05
702.6410091669758,6.500997162668448e-05
702.6487954648412,6.501004181099916e-05
702.6565817627067,6.501011727525976e-05
702.6643680605721,6.501019850616943e-05
702.6721543584375,6.501028603801058e-05
702.6771990100328,6.501034638696297e-05
702.6822436616281,6.501040980043719e-05
702.6872883132235,6.501047646465831e-05
702.6923329648188,6.501054657930738e-05
702.6973776164141,6.501062035913005e-05
702.7024222680094,6.501069803575207e-05
702.7074669196047,6.501077985972294e-05
702.7125115712,6.501086610288603e-05
702.7175562227953,6.501095706117378e-05
702.7226008743907,6.501105305791327e-05
702.727645525986,6.501115444773951e-05
702.7326901775813,6.501126162124835e-05
702.7377348291766,6.501137501056273e-05
702.7427794807719,6.501149509603325e-05
702.7478241323672,6.501162241435158e-05
702.7528687839625,6.501175756842935e-05
702.7579134355578,6.501190123949237e-05
702.7629580871532,6.501205420196046e-05
702.7680027387485,6.501221734276147e-05
702.7730473903438,6.501239168125082e-05
702.7780920419391,6.501257840128664e-05
702.7831366935344,6.501277888378396e-05
702.7881813451297,6.501299474818864e-05
702.793225996725,6.501322790940468e-05
702.7982706483203,6.501348064023022e-05
702.8033152999157,6.501375564426467e-05
702.808359951511,6.501405613850454e-05
702.8134046031063,6.501438594065319e-05
702.8184492547016,6.501474955189318e-05
702.8234939062969,6.501515222156925e-05
702.8285385578922,6.501559997704563e-05
702.8335832094875,6.50160996024387e-05
702.8386278610828,6.501665855618864e-05
702.8436725126782,6.50172848292914e-05
702.8487171642735,6.501798675979508e-05
702.8537618158688,6.501877282932554e-05
702.8588064674641,6.50196514700363e-05
702.8638511190594,6.502063090554429e-05
702.8688957706547,6.50217190400515e-05
702.87394042225,6.502292339914196e-05
702.8789850738453,6.502425112362564e-05
702.8840297254407,6.502570896560376e-05
702.889074377036,6.502730334083864e-05
702.8941190286313,6.502904039050723e-05
702.8991636802266,6.503092600751073e-05
702.9042083318219,6.503296587126766e-05
702.9092529834172,6.503516548826017e-05
702.9142976350125,6.503753022682326e-05
702.9193422866078,6.504006534543155e-05
702.9243869382032,6.504277601644927e-05
702.9294315897985,6.504566734701811e-05
702.9344762413938,6.504874439732527e-05
702.9395208929891,6.505201219606344e-05
702.9445655445844,6.505547575316343e-05
702.9496101961797,6.505914007013491e-05
702.954654847775,6.506301014833844e-05
702.9596994993703,6.506709099541625e-05
702.9647441509657,6.507138763009468e-05
702.969788802561,6.507590508561028e-05
702.9748334541563,6.508064841201491e-05
702.9798781057516,6.508562267756621e-05
702.9849227573469,6.509083296953235e-05
702.9899674089422,6.509628439389785e-05
702.9950120605375,6.51019820748096e-05
703.0000567121328,6.510793115458242e-05
703.0051013637282,6.511413679166166e-05
703.0101460153235,6.512060415895316e-05
703.0151906669188,6.512733844226097e-05
703.0202353185141,6.513434483818346e-05
703.0252799701094,6.514162855145678e-05
703.0303246217047,6.514919479206373e-05
703.0353692733,6.515704877224425e-05
703.0404139248953,6.51651957033424e-05
703.0454585764907,6.517364079244013e-05
703.050503228086,6.518238923883418e-05
703.0555478796813,6.519144623045621e-05
703.0605925312766,6.520081694030944e-05
703.0656371828719,6.521050652296217e-05
703.0706818344672,6.52205201111324e-05
703.0757264860625,6.523086281240336e-05
703.0807711376578,6.524153970614712e-05
703.0858157892532,6.525255584050798e-05
703.0908604408485,6.526391622973232e-05
703.0959050924438,6.52756258517734e-05
703.1009497440391,6.52876896458528e-05
703.1059943956344,6.530011251052484e-05
703.1110390472297,6.531289930178743e-05
703.116083698825,6.532605483130991e-05
703.1211283504203,6.533958386489901e-05
703.1261730020157,6.53534911211541e-05
703.131217653611,6.536778127022159e-05
703.1362623052063,6.538245893263196e-05
703.1413069568016,6.539752867824387e-05
703.1463516083969,6.541299502530034e-05
703.1513962599922,6.54288624395813e-05
703.1564409115875,6.544513533364104e-05
703.1614855631829,6.546181806613624e-05
703.1665302147782,6.547891494125566e-05
703.1715748663735,6.549643020826223e-05
703.1766195179688,6.551436806115588e-05
703.1816641695641,6.55327326384157e-05
703.1867088211594,6.555152802304164e-05
703.1917534727547,6.557075824265859e-05
703.19679812435,6.559042726966858e-05
703.2018427759454,6.561053902163159e-05
703.2068874275407,6.563109736191503e-05
703.211932079136,6.565210610045969e-05
703.2169767307313,6.567356899465645e-05
703.2220213823266,6.569548975035977e-05
703.2270660339219,6.571787202303434e-05
703.2321106855172,6.574071941900553e-05
703.2371553371125,6.576403549677838e-05
703.2421999887079,6.578782376839596e-05
703.2472446403032,6.581208770081391e-05
703.2522892918985,6.583683071727039e-05
703.2573339434938,6.586205619863086e-05
703.2623785950891,6.588776748468899e-05
703.2674232466844,6.591396787540994e-05
703.2724678982797,6.594066063210841e-05
703.277512549875,6.5967848978559e-05
703.2825572014704,6.59955361019594e-05
703.2876018530657,6.602372515408534e-05
703.292646504661,6.605241925222415e-05
703.2976911562563,6.608162147984245e-05
703.3027358078516,6.611133488743414e-05
703.3077804594469,6.614156249336242e-05
703.3128251110422,6.617230728460773e-05
703.3178697626375,6.620357221743041e-05
703.3229144142329,6.623536021797481e-05
703.3279590658282,6.626767418282248e-05
703.3330037174235,6.6300516979483e-05
703.3380483690188,6.633389144680643e-05
703.3430930206141,6.636780039530668e-05
703.3481376722094,6.64022466073921e-05
703.3531823238047,6.643723283750241e-05
703.3582269754,6.6472761812153e-05
703.3632716269954,6.650883622988922e-05
703.3683162785907,6.654545876115676e-05
703.373360930186,6.65826320480977e-05
703.3784055817813,6.662035870428346e-05
703.3834502333766,6.665864131439085e-05
703.3884948849719,6.669748243386807e-05
703.3935395365672,6.673688458853809e-05
703.3985841881625,6.677685027420853e-05
703.4036288397579,6.681738195628554e-05
703.4086734913532,6.685848206939427e-05
703.4137181429485,6.690015301701633e-05
703.4187627945438,6.694239717115108e-05
703.4238074461391,6.698521687200589e-05
703.4288520977344,6.702861442771999e-05
703.4338967493297,6.707259211412388e-05
703.438941400925,6.711715217453495e-05
703.4439860525204,6.716229681958853e-05
703.4490307041157,6.720802822710407e-05
703.454075355711,6.725434854198515e-05
703.4591200073063,6.730125987615128e-05
703.4641646589016,6.734876430849855e-05
703.4692093104969,6.739686388488652e-05
703.4742539620922,6.744556061814795e-05
703.4792986136875,6.74948564881184e-05
703.4843432652829,6.754475344168521e-05
703.4893879168782,6.759525339283817e-05
703.4944325684735,6.764635822274252e-05
703.4994772200688,6.769806977981745e-05
703.5045218716641,6.775038987981457e-05
703.5095665232594,6.780332030589602e-05
703.5146111748547,6.785686280871375e-05
703.51965582645,6.791101910648749e-05
703.5247004780454,6.79657908850787e-05
703.5297451296407,6.802117979805896e-05
703.534789781236,6.807718746677193e-05
703.5398344328313,6.813381548038788e-05
703.5448790844266,6.819106539594982e-05
703.5499237360219,6.82489387384099e-05
703.5549683876172,6.830743700065541e-05
703.5600130392125,6.836656164352362e-05
703.5650576908079,6.8426314095805e-05
703.5701023424032,6.848669575423368e-05
703.5751469939985,6.854770798346301e-05
