time,voltage
0.0,6.5e-05
0.0002989975869297549,6.500000005801264e-05
0.0012925203504343338,6.500000025077695e-05
0.0037395677373138324,6.500000072553894e-05
0.007828007370562821,6.50000015187106e-05
0.014054817191566083,6.50000027266427e-05
0.020281627012569345,6.50000039344951e-05
0.03142589370311579,6.500000609604241e-05
0.04917746481902849,6.500000953865065e-05
0.08259600688177043,6.50000160175803e-05
0.11601454894451238,6.50000224937915e-05
0.14943309100725433,6.500002896690644e-05
0.18285163306999627,6.500003543674273e-05
0.2393588308734863,6.500004636843686e-05
0.2958660286769763,6.500005728957721e-05
0.3523732264804663,6.50000681996203e-05
0.4504647274230422,6.50000871101741e-05
0.5485562283656181,6.500010598374245e-05
0.7064046593717126,6.500013627287896e-05
0.8642530903778071,6.500016645699128e-05
1.1479777130546962,6.500022043175645e-05
1.4317023357315852,6.50002740264516e-05
1.7154269584084743,6.5000327226943e-05
1.9991515810853633,6.500038001518244e-05
2.2828762037622523,6.500043238015096e-05
2.7830901476178607,6.50005236444231e-05
3.5419715508473955,6.500065944020194e-05
4.30085295407693,6.500079193560166e-05
5.059734357306465,6.50009210480395e-05
5.818615760536,6.500104674487915e-05
6.577497163765535,6.500116902735504e-05
7.814869873753511,6.500136118770726e-05
9.052242583741487,6.500154457277309e-05
10.289615293729463,6.50017194723045e-05
12.22788292405582,6.500197732324006e-05
14.166150554382176,6.50022168889952e-05
16.104418184708532,6.500243981736079e-05
19.341822372598255,6.500277948180102e-05
22.579226560487978,6.500308470329885e-05
25.8166307483777,6.500336153306073e-05
29.054034936267424,6.500361525143068e-05
32.291439124157144,6.500385014855762e-05
35.52884331204687,6.500406945494724e-05
40.5063161937898,6.500438163910597e-05
45.48378907553274,6.50046688659115e-05
50.46126195727568,6.500493522189793e-05
55.43873483901862,6.50051833456207e-05
63.825194969107876,6.500556393130625e-05
72.21165509919713,6.500590056446735e-05
80.59811522928638,6.500619683410362e-05
88.98457535937564,6.500645349651347e-05
97.3710354894649,6.500667577645729e-05
105.75749561955416,6.500686919723371e-05
114.14395574964342,6.500703444506793e-05
122.53041587973269,6.500717366696706e-05
130.91687600982195,6.500729292025203e-05
139.3033361399112,6.500739673843366e-05
147.68979627000047,6.500748616417589e-05
156.07625640008973,6.500756202764507e-05
164.462716530179,6.500762745706463e-05
172.84917666026826,6.50076859168157e-05
181.23563679035752,6.500773858446253e-05
189.62209692044678,6.500778499905012e-05
198.00855705053604,6.500782575276483e-05
206.3950171806253,6.500786258729093e-05
214.78147731071456,6.500789661932373e-05
223.16793744080383,6.500792765146813e-05
231.5543975708931,6.500795554023234e-05
239.94085770098235,6.500798065346362e-05
248.3273178310716,6.50080036511055e-05
256.7137779611609,6.500802474091035e-05
265.1002380912501,6.500804387601167e-05
273.48669822133934,6.500806109306179e-05
281.8731583514286,6.500807665631015e-05
290.2596184815178,6.500809078077606e-05
298.64607861160704,6.500810364512595e-05
307.03253874169627,6.500811522190584e-05
315.4189988717855,6.500812559610796e-05
323.80545900187474,6.500813488010974e-05
332.19191913196397,6.500814326935927e-05
340.5783792620532,6.500815080924931e-05
348.96483939214244,6.500815758717246e-05
357.35129952223167,6.500816357588554e-05
365.7377596523209,6.50081689379764e-05
374.12421978241014,6.500817372978681e-05
382.51067991249937,6.500817805381282e-05
390.8971400425886,6.500818185936695e-05
399.28360017267784,6.50081852690796e-05
407.67006030276707,6.500818825847492e-05
416.0565204328563,6.500819097397921e-05
424.44298056294554,6.500819336136218e-05
432.82944069303477,6.500819551639273e-05
441.215900823124,6.50081973679448e-05
449.60236095321324,6.500819907449925e-05
457.98882108330247,6.500820053928568e-05
466.3752812133917,6.500820189965516e-05
474.76174134348094,6.500820304418655e-05
483.14820147357017,6.500820412030823e-05
491.5346616036594,6.500820500229632e-05
499.92112173374863,6.500820587210601e-05
508.30758186383787,6.500820655977793e-05
516.6940419939272,6.50082072510442e-05
525.0805021240164,6.500820777531362e-05
533.4669622541057,6.500820816186864e-05
541.853422384195,6.500820846530368e-05
550.2398825142843,6.500820885959571e-05
558.6263426443736,6.500820922160795e-05
567.0128027744629,6.500820968410576e-05
575.3992629045522,6.500820994057363e-05
583.7857230346415,6.500821020618602e-05
592.1721831647308,6.500821036482477e-05
600.5586432948201,6.500821063649349e-05
608.9451034249093,6.500821078248172e-05
617.3315635549986,6.500821102939884e-05
625.7180236850879,6.500821110026067e-05
634.1044838151772,6.500821128708276e-05
642.4909439452665,6.500821132160804e-05
650.8774040753558,6.500821151789776e-05
659.2638642054451,6.500821153227368e-05
667.6503243355344,6.50082117076968e-05
676.0367844656237,6.500821167159179e-05
684.423244595713,6.500821184196098e-05
692.8097047258022,6.500821179273469e-05
700.0,6.500821185445624e-05
700.0,6.500821185445624e-05
700.0000521228092,6.500821185445668e-05
700.0001355764338,6.500821185445737e-05
700.0003155794046,6.500821185445886e-05
700.0004955823755,6.500821185446035e-05
700.000861351888,6.500821185446337e-05
700.0012271214006,6.500821185446637e-05
700.00213199159,6.500821185447354e-05
700.0030368617794,6.500821185448018e-05
700.0039417319688,6.500821185448563e-05
700.0048466021582,6.500821185448908e-05
700.0062638654923,6.500821185448803e-05
700.0076811288264,6.500821185447628e-05
700.0090983921606,6.500821185445047e-05
700.0114612750996,6.500821185436562e-05
700.0138241580386,6.500821185422138e-05
700.0175321319887,6.500821185385439e-05
700.0212401059388,6.500821185330496e-05
700.0276376543856,6.500821185191162e-05
700.0340352028323,6.500821184993049e-05
700.0404327512791,6.500821184740283e-05
700.0468302997259,6.500821184435869e-05
700.0532278481727,6.500821184084564e-05
700.0636216553635,6.500821183430152e-05
700.0740154625543,6.500821182694354e-05
700.084409269745,6.500821181902628e-05
700.1003581756988,6.500821180636559e-05
700.1163070816526,6.500821179384715e-05
700.1322559876064,6.500821178231018e-05
700.1615814850271,6.500821176634244e-05
700.1909069824478,6.500821176128053e-05
700.2202324798685,6.500821177175103e-05
700.2495579772892,6.500821180234984e-05
700.2788834747099,6.500821185761115e-05
700.3082089721306,6.500821194208587e-05
700.3553433510879,6.50082121508529e-05
700.4024777300451,6.50082124669867e-05
700.4496121090024,6.500821291108439e-05
700.4967464879596,6.500821350483055e-05
700.5438808669169,6.50082142713595e-05
700.6222502995163,6.500821599633467e-05
700.7420026568219,6.500821997989386e-05
700.8617550141275,6.500822607085362e-05
700.9815073714332,6.500823491835412e-05
701.1012597287388,6.500824734765188e-05
701.2210120860444,6.500826442080041e-05
701.34076444335,6.500828750491206e-05
701.4605168006557,6.500831836525825e-05
701.6580359423971,6.50083928460164e-05
701.7915347359219,6.500846623445428e-05
701.8249094343031,6.500848834162769e-05
701.8582841326843,6.500851221277848e-05
701.8916588310655,6.500853799274876e-05
701.9250335294466,6.500856583900189e-05
701.9584082278278,6.500859592607961e-05
701.991782926209,6.500862844826395e-05
702.0251576245902,6.500866362283778e-05
702.0585323229714,6.500870169634266e-05
702.079090777994,6.500872671364903e-05
702.0996492330166,6.500875301453763e-05
702.1202076880393,6.500878068476428e-05
702.1407661430619,6.50088098236613e-05
702.1513070003191,6.50088253712646e-05
702.1584228022319,6.500883611269838e-05
702.1655386041448,6.500884705992672e-05
702.1726544060576,6.500885822052766e-05
702.1797702079705,6.500886960324175e-05
702.1868860098833,6.500888121810257e-05
702.1940018117962,6.500889307689598e-05
702.201117613709,6.500890519338121e-05
702.2082334156219,6.500891758357882e-05
702.2153492175347,6.500893026598628e-05
702.2224650194476,6.500894326171593e-05
702.2295808213604,6.500895659461369e-05
702.2366966232732,6.500897029138325e-05
702.2476860413316,6.500899222908944e-05
702.2586754593899,6.500901523045042e-05
702.2696648774482,6.500903943843139e-05
702.2806542955066,6.50090650168626e-05
702.2916437135649,6.500909215241164e-05
702.3026331316232,6.500912105671103e-05
702.3136225496816,6.500915196883946e-05
702.3246119677399,6.500918515821809e-05
702.3356013857982,6.50092209278651e-05
702.3465908038565,6.500925961794384e-05
702.3575802219149,6.500930160982998e-05
702.3685696399732,6.500934733073171e-05
702.3795590580315,6.500939725910335e-05
702.3905484760899,6.500945193090698e-05
702.4015378941482,6.500951194703996e-05
702.4125273122065,6.500957798202875e-05
702.4235167302649,6.50096507946799e-05
702.4345061483232,6.500973124107586e-05
702.4454955663815,6.500982029081326e-05
702.4564849844398,6.500991904712451e-05
702.4674744024982,6.501002877271154e-05
702.4784638205565,6.501015092301106e-05
702.4894532386148,6.501028719018137e-05
702.5004426566732,6.501043956151038e-05
702.5114320747315,6.501061039937097e-05
702.5224214927898,6.501080255214868e-05
702.5334109108481,6.5011019513041e-05
702.5444003289065,6.501126565176136e-05
702.5553897469648,6.50115465644699e-05
702.5663791650231,6.501186961475367e-05
702.5773685830815,6.501224479572154e-05
702.5954552020038,6.501301749748906e-05
702.6079835877287,6.501371179385576e-05
702.6205119734535,6.501459937280696e-05
702.6330403591784,6.501576649578649e-05
702.6455687449032,6.501731918126866e-05
702.6580971306281,6.501938315297225e-05
702.670625516353,6.502208525629415e-05
702.6831539020778,6.502553456106419e-05
702.6956822878027,6.502983393186603e-05
702.7082106735276,6.503507870527396e-05
702.7207390592524,6.504135102903611e-05
702.7332674449773,6.50487246095476e-05
702.7457958307021,6.50572720502764e-05
702.758324216427,6.506706886697578e-05
702.7708526021519,6.507819288578737e-05
702.7833809878767,6.5090722640794e-05
702.7959093736016,6.510473644921161e-05
702.8084377593265,6.512031255001933e-05
702.8209661450513,6.513752962877599e-05
702.8334945307762,6.515646700385102e-05
702.846022916501,6.51772042871082e-05
702.8585513022259,6.519982086849256e-05
702.8710796879508,6.522439551064185e-05
702.8836080736756,6.525100606156704e-05
702.8961364594005,6.52797292100129e-05
702.9086648451254,6.531064025552001e-05
702.9211932308502,6.534381290036033e-05
702.9337216165751,6.537931907886913e-05
702.9525639951466,6.54372669570333e-05
702.9714063737182,6.550088113961392e-05
702.9902487522897,6.557038091465522e-05
703.0090911308613,6.564597454376243e-05
703.0279335094328,6.572785982992624e-05
703.0467758880044,6.581622512684174e-05
703.0656182665759,6.591124967176553e-05
703.0844606451475,6.601310447728275e-05
703.103303023719,6.612195298753296e-05
703.1221454022906,6.623795224059544e-05
703.1409877808621,6.63612534980265e-05
703.1598301594337,6.649200214170565e-05
703.1786725380052,6.663033765875697e-05
703.1975149165768,6.677639383845771e-05
703.2163572951483,6.693029869592609e-05
703.2351996737199,6.70921741114102e-05
703.2540420522914,6.726213550719801e-05
703.272884430863,6.74402916546087e-05
703.2917268094345,6.762674466311935e-05
703.3105691880061,6.782159023753956e-05
703.3294115665776,6.802491796653566e-05
703.3482539451492,6.823681132165344e-05
703.3670963237207,6.845734753767655e-05
703.3859387022923,6.868659772792237e-05
703.4047810808638,6.892462708894358e-05
703.4236234594354,6.917149480902139e-05
703.4424658380069,6.942725373207806e-05
703.4613082165785,6.96919500820759e-05
703.48015059515,6.996562319870783e-05
703.4989929737216,7.02483049764073e-05
703.5178353522931,7.054001894780403e-05
703.5366777308647,7.084077917072202e-05
703.5555201094362,7.115058893464204e-05
703.5743624880078,7.146943916561508e-05
703.5932048665793,7.179730655740682e-05
703.6120472451508,7.213415160133077e-05
703.6308896237224,7.247991668220156e-05
703.6632239758834,7.30938188115899e-05
703.6955583280444,7.373321750103742e-05
703.7278926802054,7.439739182454251e-05
703.7602270323664,7.508546811227124e-05
703.7925613845274,7.579646510511125e-05
703.8248957366884,7.652934034296637e-05
703.8572300888494,7.728302756205623e-05
703.8895644410104,7.805647539396264e-05
703.9218987931714,7.884868204365249e-05
703.9542331453324,7.965870069702845e-05
703.9865674974934,8.048561522455625e-05
704.0,8.083389022400194e-05
704.0,8.083389022400194e-05
704.0000521218892,8.0835246948406e-05
704.0001356163565,8.083742040012988e-05
704.0003162004284,8.08421216869221e-05
704.0004967845003,8.084682346070692e-05
704.000862697797,8.085635188860059e-05
704.0012286110936,8.0865882095481e-05
704.0021317424737,8.088941270671034e-05
704.0030348738538,8.091295547131093e-05
704.003938005234,8.093651067742503e-05
704.0048411366141,8.09600785797662e-05
704.0062581372628,8.099708259086967e-05
704.0076751379114,8.103411951509996e-05
704.00909213856,8.107119026847092e-05
704.011457405872,8.113314726813402e-05
704.0138226731839,8.119520383697276e-05
704.0175389788361,8.12929131836317e-05
704.0212552844883,8.139087574065247e-05
704.0277077007439,8.156156225809048e-05
704.0341601169995,8.173300878216144e-05
704.0406125332551,8.190519295184184e-05
704.0470649495106,8.207809815036831e-05
704.0535173657662,8.225170361576631e-05
704.0640651285976,8.253694180745181e-05
704.074612891429,8.282388933506523e-05
704.0851606542603,8.311245432386832e-05
704.1012335456488,8.35550956587754e-05
704.1173064370373,8.400102177212239e-05
704.1333793284258,8.444998185282579e-05
704.1494522198143,8.490174751489657e-05
704.1655251112028,8.535611035127281e-05
704.1815980025913,8.581287859563675e-05
704.1976708939798,8.627187359078031e-05
704.2230575039068,8.700097145568642e-05
704.2484441138339,8.77345938724654e-05
704.273830723761,8.847218358642383e-05
704.299217333688,8.921323110042355e-05
704.3246039436151,8.995726601976207e-05
704.3499905535422,9.070385095511425e-05
704.3753771634692,9.145258129732717e-05
704.4007637733963,9.220308231363053e-05
704.4261503833234,9.295500646263696e-05
704.4515369932504,9.370802988138269e-05
704.4769236031775,9.446184962712164e-05
704.5023102131046,9.521618217575921e-05
704.5276968230316,9.597076252340811e-05
704.5530834329587,9.672534286243672e-05
704.5784700428858,9.747969079498638e-05
704.6038566528129,9.823358779126238e-05
704.6292432627399,9.898682824289002e-05
704.654629872667,9.973921876949859e-05
704.6984890304046,0.00010103655502680701
704.7423481881423,0.00010232994787981221
704.7862073458799,0.00010361861367289512
704.8300665036176,0.00010490184283091261
704.8739256613552,0.00010617899131102032
704.9177848190928,0.00010744947369576762
704.9894821833236,0.00010951062397300663
705.0611795475544,0.00011155049639949887
705.1328769117852,0.00011356733333161786
705.2045742760159,0.00011555964322076385
705.2762716402467,0.00011752615239541959
705.3479690044775,0.00011946578404544644
705.396824642049,0.00012077161735613403
705.4456802796204,0.00012206431813989445
705.4945359171919,0.00012334368680244344
705.5433915547634,0.0001246095576957473
705.5922471923349,0.00012586179671200372
705.6411028299063,0.00012710029884986976
705.6899584674778,0.00012832498560591527
705.7388141050493,0.00012953580211530212
705.7876697426208,0.0001307327142030552
705.8365253801923,0.000131915705527276
705.8853810177637,0.00013308477538372576
705.9342366553352,0.0001342399370178863
705.9830922929067,0.00013538121631847437
706.0319479304782,0.0001365086510063915
706.0808035680496,0.00013762229004060574
706.1296592056211,0.00013872219285997309
706.1785148431926,0.00013980842843018808
706.2273704807641,0.00014088107424081354
706.2762261183356,0.00014194021531209263
706.325081755907,0.00014298594320699486
706.3739373934785,0.0001440183550820413
706.42279303105,0.0001450375528408348
706.4716486686215,0.0001460436424097998
706.520504306193,0.00014703673309048658
706.5693599437644,0.00014801693693457197
706.6182155813359,0.00014898436813718253
706.6670712189074,0.0001499391424651426
706.7159268564789,0.00015088137677727014
706.7647824940503,0.00015181118863496893
706.8136381316218,0.00015272869599462666
706.8624937691933,0.00015363401698851906
706.9113494067648,0.00015452726978670828
706.9602050443362,0.00015540857252311293
707.0090606819077,0.00015627804326619324
707.0579163194792,0.00015713580001662508
707.1322141048826,0.000158418056302204
707.2065118902859,0.00015967390885106088
707.2808096756893,0.0001609037722210858
707.3551074610926,0.00016210806087901952
707.429405246496,0.00016328718914350936
707.5037030318994,0.00016444157097880108
707.5780008173027,0.00016557161974058707
707.6522986027061,0.00016667774779073374
707.7265963881094,0.0001677603659706027
707.8008941735128,0.0001688198830753842
707.8751919589162,0.00016985670543790391
707.9494897443195,0.00017087123653601252
708.0237875297229,0.0001718638765025267
708.0980853151262,0.00017283502160647446
708.1723831005296,0.00017378506385042896
708.246680885933,0.00017471439064619347
708.3618449734906,0.00017611483074060516
708.4770090610483,0.0001774678148853604
708.592173148606,0.00017877470818252316
708.7073372361637,0.0001800368414034966
708.8225013237213,0.0001812555104658278
709.0012869835035,0.00018306425754008578
709.1800726432857,0.0001847758359713002
709.3588583030679,0.00018639460230351253
709.5376439628501,0.0001879247243683134
709.7164296226323,0.00018937018694797767
709.8952152824145,0.0001907347982906646
710.0740009421967,0.0001920221970248314
710.3623012632821,0.00019394430791986746
710.6506015843676,0.00019568836997588352
710.938901905453,0.00019726713291193934
711.2272022265385,0.00019869243243672
711.5155025476239,0.00019997526262738105
711.8038028687093,0.0002011258305797693
712.0921031897948,0.00020215361227835446
712.3804035108802,0.0002030674058103901
712.8328600513505,0.00020429111753145486
713.2853165918208,0.0002052828161265312
713.7377731322911,0.00020606807151653315
714.1902296727613,0.0002066696728545306
714.6426862132316,0.00020710795195543334
715.0951427537019,0.00020740104073286566
715.5475992941722,0.00020756510247696053
716.0000558346425,0.00020761454406155916
716.4525123751127,0.00020756221431282462
716.904968915583,0.0002074195714789923
717.3574254560533,0.00020719684077593763
717.8098819965236,0.0002069031406140186
718.2623385369939,0.0002065466108607592
718.7147950774641,0.00020613451582290695
719.1672516179344,0.00020567334018906265
719.6197081584047,0.00020516886944034994
720.072164698875,0.00020462627267905966
720.5246212393453,0.00020405015924855662
720.9770777798155,0.00020344465034044163
721.4295343202858,0.00020281342060658565
721.8819908607561,0.00020215974907072693
722.3344474012264,0.00020148656527763017
722.7869039416967,0.00020079648166101602
723.5011537811241,0.00019967812725918792
724.2154036205516,0.0001985311884946265
724.929653459979,0.00019736240299006997
725.6439032994065,0.0001961773560677603
726.8829920066373,0.00019409530177957442
728.1220807138682,0.00019199624683617468
729.361169421099,0.00018989453030151076
730.6002581283299,0.00018780026861389172
731.8393468355607,0.00018572062087890927
733.0784355427916,0.0001836606915543926
734.3175242500224,0.00018162412631158483
735.5566129572533,0.00017961350960805323
736.7957016644841,0.00017763064247133364
738.034790371715,0.00017567674442974055
740.0661549529268,0.00017253800666354734
742.0975195341387,0.0001694808846127911
744.1288841153505,0.00016650581170622408
746.1602486965623,0.0001636121371070735
749.4632478424504,0.0001590777927256088
752.7662469883385,0.00015474863523222315
756.0692461342265,0.0001506165361499392
759.3722452801146,0.0001466732545769204
762.6752444260027,0.0001429107320413649
765.9782435718907,0.00013932107556768197
771.5305523881203,0.00013365521079494733
777.0828612043499,0.00012842100704571783
782.6351700205795,0.00012358571887351028
788.1874788368091,0.00011911897193618063
793.7397876530387,0.00011499269873338776
799.2920964692682,0.00011118099204351928
808.1557468504913,0.00010568901238576873
817.0193972317143,0.00010085006086310707
825.8830476129373,9.65866550901195e-05
834.7466979941603,9.283041063673008e-05
843.6103483753833,8.952097395559063e-05
