time,voltage
0.0,-80.0
0.00029899758692979124,-80.00256753782372
0.0012925203504344836,-80.00947013682531
0.003739567737314186,-80.02184203488981
0.007828007370563534,-80.03692404525717
0.014054817191567086,-80.05422402650976
0.020281627012570635,-80.06840861417355
0.031425893703117165,-80.08975200992556
0.049177464819037245,-80.11682393027054
0.0825960068815759,-80.15573336703453
0.11601454894411455,-80.18513331042904
0.1494330910066532,-80.20968032173946
0.18285163306919183,-80.2312922118936
0.23935883087188714,-80.26362877365287
0.29586602867458245,-80.29169495707514
0.35237322647727776,-80.31663001811367
0.4504647274185312,-80.35496651204244
0.5485562283597847,-80.38838656480883
0.7064046593596709,-80.43519460051758
0.8642530903595571,-80.47620301586095
1.1479777130392481,-80.5410641866902
1.431702335718939,-80.5999596556322
1.7154269583986297,-80.65550387643134
1.9991515810783205,-80.70839566431697
2.2828762037580113,-80.7589670080056
2.783090147644744,-80.84345222511345
3.541971550919354,-80.96258535205004
4.300852954193964,-81.07315598714645
5.059734357468574,-81.17639640390036
5.818615760743183,-81.27289705635961
6.577497164017793,-81.3631314586061
7.814869873950639,-81.49794503149539
9.052242583883485,-81.61893290767463
10.28961529381633,-81.72747371645936
12.227882924198642,-81.87516366998047
14.166150554580954,-81.99898302021603
16.104418184963265,-82.10234319821038
19.341822372581507,-82.23739458321573
22.57922656019975,-82.33536729206439
25.816630747817992,-82.40558925755052
29.054034935436235,-82.4554023816111
32.291439123054474,-82.49050139453256
35.52884331067271,-82.51524191987986
40.5063161914751,-82.54049727521132
45.48378907227749,-82.55733925843595
50.46126195307988,-82.57079348832222
55.438734833882265,-82.58381106503974
63.82519494705879,-82.60847571539342
72.21165506023532,-82.63815975773575
80.59811517341184,-82.67263231134933
88.98457528658837,-82.70980343120814
97.37103539976489,-82.7467456112116
105.75749551294142,-82.78089521495416
114.14395562611794,-82.81088422073282
122.53041573929447,-82.83643381552594
130.91687585247098,-82.85744965989163
139.3033359656475,-82.87383705346312
147.68979607882403,-82.88582638713393
156.07625619200056,-82.89405662648687
164.46271630517708,-82.8992698371318
172.8491764183536,-82.90213422467801
181.23563653153013,-82.90311912862659
189.62209664470666,-82.90264469931424
198.00855675788318,-82.90115728197316
206.3950168710597,-82.89908815935368
214.78147698423624,-82.89670280720995
223.16793709741276,-82.89418787223406
231.5543972105893,-82.8916419073779
239.9408573237658,-82.88918983792257
248.32731743694234,-82.8869363945484
256.71377755011883,-82.88492646577876
265.10023766329533,-82.883112616861
273.48669777647183,-82.88149238244048
281.8731578896483,-82.88006421493832
290.2596180028248,-82.8788608098443
298.6460781160013,-82.87784753118156
307.0325382291778,-82.87699512512899
315.4189983423543,-82.87625760105483
323.8054584555308,-82.8756569676502
332.1919185687073,-82.87516204501534
340.5783786818838,-82.87477359265593
348.9648387950603,-82.87444215220286
357.3512989082368,-82.87417829393067
365.7377590214133,-82.87395173919874
374.1242191345898,-82.87379107588853
382.5106792477663,-82.87364936809979
390.8971393609428,-82.87354915350653
399.2835994741193,-82.87345027487338
407.6700595872958,-82.8733898335098
416.0565197004723,-82.87332486502811
424.4429798136488,-82.87329643043476
432.8294399268253,-82.87325039763786
441.21590004000177,-82.87323554764156
449.60236015317827,-82.87320029904623
457.98882026635476,-82.87320001801737
466.37528037953126,-82.87317185380793
474.76174049270776,-82.87317994311596
483.14820060588426,-82.87315365484739
491.53466071906075,-82.87316665438074
499.92112083223725,-82.87314214852567
508.30758094541375,-82.87316155123727
516.6940410585903,-82.87313514217838
525.0805011717669,-82.87315833067271
533.4669612849434,-82.87317499455057
541.85342139812,-82.87321625994467
550.2398815112965,-82.87317803496013
558.6263416244731,-82.87317418426787
567.0128017376496,-82.8731468393993
575.3992618508262,-82.87317382519018
583.7857219640027,-82.87315270143628
592.1721820771793,-82.87317759438235
600.5586421903558,-82.87314376542149
608.9451023035324,-82.87317158223715
617.331562416709,-82.87313983849204
625.7180225298855,-82.87317265485619
634.104482643062,-82.87313494308648
642.4909427562386,-82.87317150931231
650.8774028694152,-82.87312725147191
659.2638629825917,-82.87316920660038
667.6503230957683,-82.87312136961187
676.0367832089448,-82.87316904372135
684.4232433221214,-82.87311413534668
692.8097034352979,-82.87316746639775
700.0,-82.87315813212497
700.0,-82.87315813212497
700.0000982753556,-82.86483322708575
700.0003000805424,-82.84882066859059
700.000781321501,-82.81487479173491
700.0012625624596,-82.78423116884268
700.0021281270996,-82.73463585397849
700.0035563657531,-82.66489804379647
700.0061683487269,-82.56154518420398
700.0087803317007,-82.47862722205596
700.0113923146745,-82.40733248915623
700.0140042976483,-82.34338043874632
700.0185246559233,-82.24383438938057
700.0230450141984,-82.15584432930564
700.0275653724734,-82.07653471416057
700.0353403414616,-81.9549879156306
700.0431153104498,-81.84752583758865
700.0581006356341,-81.66770550518014
700.0730859608184,-81.51067565152515
700.0880712860027,-81.36858967724812
700.103056611187,-81.23814180582511
700.1180419363712,-81.11728848031977
700.1440471672697,-80.92583284265994
700.1700523981682,-80.75197455949292
700.1960576290667,-80.59141510761596
700.2365244388658,-80.36236700948561
700.2769912486649,-80.1531806798396
700.339443653185,-79.85994503931047
700.4387500540588,-79.44591678617128
700.5380564549326,-79.07901446862088
700.6373628558065,-78.74784091912697
700.7366692566803,-78.44155614633031
700.8359756575542,-78.15214488196374
700.935282058428,-77.8756060881711
701.0345884593019,-77.60988079154964
701.1836955184726,-77.22681686939332
701.3328025776434,-76.85873128528202
701.4819096368142,-76.50237061121497
701.631016695985,-76.15534233513559
701.8687337960297,-75.61729572108524
702.1064508960744,-75.09446123289271
702.3441679961192,-74.58449050212882
702.5818850961639,-74.08575646235404
702.9406502068025,-73.35145035818272
703.4825944387661,-72.27829050027151
704.0245386707297,-71.24348321990874
704.5664829026933,-70.2431034622885
705.108427134657,-69.27344687587353
705.6503713666206,-68.33035797922611
706.1923155985842,-67.41144741216084
706.7342598305478,-66.51329234802185
707.2762040625114,-65.63602574186778
707.818148294475,-64.7744382402219
708.3600925264386,-63.92235853059718
708.9020367584022,-63.08144746255098
709.4439809903658,-62.24664489031774
709.9859252223295,-61.40492918313814
710.5278694542931,-60.54443614022453
711.0698136862567,-59.65415061912881
711.6117579182203,-58.721606705800944
711.7472439762112,-58.471578711118724
711.882730034202,-58.19877575744874
712.0182160921929,-57.90375530180187
712.1537021501838,-57.58676812242185
712.2891882081747,-57.227408728470145
712.4246742661655,-56.78827089225471
712.4585457806633,-56.654766473207346
712.492417295161,-56.498961592179015
712.5262888096587,-56.31775371723336
712.5601603241564,-56.1076259150574
712.5940318386541,-55.851577586027204
712.6279033531519,-55.512790517428826
712.6485258922811,-55.23894266936063
712.6691484314103,-54.880157232198165
712.6897709705396,-54.38427114571139
712.702603588212,-53.97205048578371
712.7154362058844,-53.45191180175214
712.7282688235568,-52.80699566764914
712.7411014412293,-52.03925825039393
712.7487208616628,-51.53611009897282
712.7563402820964,-51.01098569336732
712.76395970253,-50.473815651638134
712.7715791229635,-49.93156575008192
712.7791985433971,-49.38931239115915
712.7868179638307,-48.85134978309517
712.7944373842643,-48.32104397549581
712.8020568046978,-47.80047392505348
712.8096762251314,-47.29082462905453
712.817295645565,-46.79300316550272
712.8303994758094,-45.9665941706501
712.8435033060538,-45.1791996064961
712.8566071362982,-44.43086611897619
712.8697109665426,-43.721223562198006
712.882814796787,-43.04949544100006
712.8959186270314,-42.41446506330294
712.9090224572758,-41.8139147759919
712.9221262875202,-41.24570270057088
712.9352301177646,-40.707508304198754
712.948333948009,-40.197413880895645
712.9614377782534,-39.712846018576094
712.9822784881324,-38.98929051967616
713.0031191980113,-38.31563472913734
713.0239599078902,-37.68271166573968
713.0448006177692,-37.082756412865415
713.0656413276481,-36.50765861806666
713.0972026745217,-35.66669657726469
713.1287640213952,-34.835971505765386
713.1603253682688,-33.98695424358824
713.1918867151423,-33.08641994470254
713.2234480620159,-32.094616695979525
713.2550094088895,-30.958835358457872
713.286570755763,-29.605081195268607
713.3181321026366,-27.923577012664147
713.3496934495101,-25.7233494271604
713.3812547963837,-22.711753045501105
713.4004354914331,-20.301293827089825
713.4196161864825,-17.273503382809054
713.4387968815319,-13.456227599096447
713.4579775765812,-8.706448205250647
713.4697937907711,-5.34117750048816
713.4816100049609,-1.7030801152713433
713.4934262191507,2.0541501041413524
713.5052424333405,5.759432233243225
713.5170586475303,9.201808876284687
713.5288748617202,12.210842814611437
713.54069107591,14.688261944377535
713.5525072900998,16.61557585429926
713.5643235042896,18.025611666596422
713.5761397184795,18.978225330146877
713.5879559326693,19.543226894921872
713.5997721468591,19.789360287807586
713.6115883610489,19.778305894636862
713.6234045752387,19.5625059021226
713.6352207894286,19.185141376621957
713.6470370036184,18.681088125110293
713.6588532178082,18.07823869766826
713.670669431998,17.398829091464677
713.6824856461878,16.660595247832116
713.6943018603777,15.877720097960703
713.7061180745675,15.0615842223201
713.7179342887573,14.22135047942474
713.7297505029471,13.36441803052813
713.7488630877054,11.957234655701523
713.7679756724638,10.542132103673776
713.7870882572221,9.131823361459944
713.8062008419804,7.735217158396909
713.8253134267387,6.360158997795201
713.844426011497,5.010906731048483
713.8635385962554,3.6898437118707847
713.8826511810137,2.3984968234337596
713.901763765772,1.1367767745313773
713.9208763505303,-0.09607006059635896
713.9399889352886,-1.3010807148783607
713.9591015200469,-2.4798303896378866
713.9782141048053,-3.634242211719771
713.9973266895636,-4.7664323587191735
714.0164392743219,-5.878638597540909
714.0355518590802,-6.9731721546306344
714.0546644438385,-8.052389296830075
714.0737770285969,-9.118670562080558
714.0928896133552,-10.1744066950257
714.1120021981135,-11.221988595872736
714.1311147828718,-12.263800372455675
714.1502273676301,-13.302210291445471
714.1693399523884,-14.339555944403743
714.1884525371468,-15.378120614498243
714.2075651219051,-16.420100069524896
714.2266777066634,-17.467558120589956
714.2457902914217,-18.52236928141445
714.26490287618,-19.58614618641757
714.2840154609383,-20.66015051504297
714.3031280456967,-21.74518702439002
714.322240630455,-22.841482860834965
714.3413532152133,-23.94855740146018
714.3604657999716,-25.065092828082864
714.3795783847299,-26.188820545326685
714.3986909694883,-27.31644351164511
714.4178035542466,-28.44361700469803
714.4369161390049,-29.56500953920688
714.4664270603275,-31.27077967982554
714.4959379816502,-32.92303693212427
714.5254489029728,-34.49658236902633
714.5549598242955,-35.96931228780772
714.5844707456181,-37.325901257045295
714.6139816669407,-38.5583470438108
714.6434925882634,-39.666005990573424
714.673003509586,-40.65407648218655
714.7025144309086,-41.53202521026112
714.7320253522313,-42.31152189264337
714.7615362735539,-43.004883997165486
714.7910471948766,-43.62394781577567
714.8205581161992,-44.179482126995836
714.8500690375218,-44.68089863035534
714.8795799588445,-45.13622234714391
714.9090908801671,-45.55218849558116
714.9386018014898,-45.934418584226904
714.9681127228124,-46.28758765088633
714.997623644135,-46.615585177443016
715.0271345654577,-46.921650276825766
715.0566454867803,-47.20849818081519
715.086156408103,-47.478414893853184
715.1156673294256,-47.7333316520079
715.1451782507482,-47.974884842121135
715.1746891720709,-48.20446775752152
715.2042000933935,-48.423271282884606
715.2337110147162,-48.63231583418284
715.2632219360388,-48.83247916330874
715.2927328573614,-49.024518963089385
715.3222437786841,-49.20909484413501
715.3517547000067,-49.386783896026685
715.3985903248973,-49.655875000328216
715.4454259497879,-49.91059784733317
715.4922615746785,-50.152354134999946
715.5390971995691,-50.38231907715176
715.5859328244597,-50.60148599048337
715.6327684493504,-50.810694607288184
715.679604074241,-51.01065708396387
715.7264396991316,-51.20197900249636
715.7982472261119,-51.479697534783085
715.8700547530923,-51.739835032006546
715.9418622800727,-51.983583534593215
716.013669807053,-52.21188837583004
716.0854773340334,-52.42550521925742
716.1572848610137,-52.62503439372303
716.2290923879941,-52.810982101795304
716.3008999149745,-52.98380865512692
716.3727074419548,-53.14398677446264
716.4445149689352,-53.29204390148026
716.5163224959156,-53.42858704392427
716.5881300228959,-53.55428811440158
716.6599375498763,-53.66984302430352
716.7317450768567,-53.77591648404605
716.803552603837,-53.873109758768294
716.8753601308174,-53.96195553108971
716.9471676577978,-54.0429403243812
717.0189751847781,-54.116529358777086
717.0907827117585,-54.183190507322124
717.1625902387389,-54.243403892444434
717.2343977657192,-54.2976599439284
717.3062052926996,-54.346440407900474
717.37801281968,-54.390198060833754
717.4498203466603,-54.42934327702943
717.5216278736407,-54.46424393183927
717.593435400621,-54.49522999757325
717.6652429276014,-54.52259974550278
717.7370504545818,-54.54662234671564
717.8088579815621,-54.56754053918608
717.8806655085425,-54.58557136460975
717.9524730355229,-54.60090802432589
718.0242805625032,-54.61372047441211
718.0960880894836,-54.624157933384325
718.167895616464,-54.63235050829117
718.2397031434443,-54.638412228182524
718.3564007706788,-54.64396211266166
718.4730983979132,-54.64449341093585
718.5897960251476,-54.64034414689771
718.706493652382,-54.63176625923054
718.8231912796165,-54.61903381235749
718.9398889068509,-54.6023959200411
719.0565865340853,-54.58210797306799
719.1732841613198,-54.55841883105896
719.2899817885542,-54.531583535867014
719.4066794157886,-54.50184571299526
719.5233770430231,-54.46945019273978
719.6400746702575,-54.43462473801765
719.7567722974919,-54.397588044599175
719.8734699247264,-54.35854197141947
719.9901675519608,-54.31768260439154
720.1728365980746,-54.25046580982316
720.3555056441884,-54.17985640302406
720.5381746903022,-54.106277524744335
720.720843736416,-54.030221040216524
720.9035127825298,-53.95198279330211
721.0861818286436,-53.87188509918748
721.2688508747574,-53.79005654657571
721.4515199208712,-53.70677902109241
721.634188966985,-53.622015305089704
721.924813658785,-53.48489720971886
722.2154383505849,-53.34402346015332
722.5060630423849,-53.20063144633507
722.7966877341848,-53.054616559620634
723.0873124259848,-52.90655231971452
723.3779371177848,-52.75441338214385
723.6685618095847,-52.601214447513016
723.9591865013847,-52.44433251680378
724.2498111931847,-52.28282341813289
724.5404358849846,-52.115138763016276
724.8310605767846,-51.94561651716742
725.1216852685845,-51.766898171950324
725.4123099603845,-51.582737749733916
725.7029346521845,-51.38699449835194
725.7755908251345,-51.337011400475824
725.8482469980845,-51.286670511264745
725.9209031710345,-51.23514100989514
726.034121488342,-51.15205580825646
726.1473398056494,-51.06703413471075
726.2605581229568,-50.97863239649153
726.3737764402642,-50.888886517843304
726.4869947575717,-50.79540542392442
726.6002130748791,-50.69706468232205
726.7806960507476,-50.529751783114456
726.961179026616,-50.35038854144652
727.1416620024845,-50.151732065898656
727.322144978353,-49.92289413503677
727.5026279542215,-49.65409113089983
727.5477486981886,-49.5773344344327
727.5928694421557,-49.49421233719944
727.6379901861228,-49.40355358280119
727.6831109300899,-49.30516499086884
727.728231674057,-49.196396596820406
727.7733524180242,-49.07439423619478
727.8184731619913,-48.93542983312404
727.8635939059584,-48.773244718459374
727.9087146499255,-48.578253521097984
727.9199948359172,-48.52302703278455
727.931275021909,-48.46376958126275
727.9425552079007,-48.40006521471818
727.9656066212053,-48.252846778356485
727.98865803451,-48.0769576050337
727.9994613369576,-47.98287321890491
728.0102646394051,-47.879058839336054
728.0210679418527,-47.763540018141356
728.0318712443003,-47.6336101576579
728.0426745467479,-47.48619633212348
728.0534778491955,-47.316986707333164
728.0642811516431,-47.120601463073605
728.0750844540906,-46.89044142464209
728.0858877565382,-46.61869516976407
728.0966910589858,-46.29733997483924
728.1074943614334,-45.918431796455465
728.1121534850903,-45.73637121675999
728.1168126087472,-45.542486856672056
728.1214717324041,-45.33695313475948
728.126130856061,-45.12029265005839
728.1307899797179,-44.893329214963124
728.1354491033748,-44.65719541677947
728.1401082270316,-44.41327216991885
728.1447673506885,-44.16309791070897
728.1494264743454,-43.90827035406481
728.1540855980023,-43.65035823762115
728.1587447216592,-43.39083101224757
728.1634038453161,-43.13101028985924
728.168062968973,-42.872043330784976
728.1751401332355,-42.48233050996695
728.1822172974979,-42.09925351449132
728.1892944617604,-41.72486429090806
728.1963716260228,-41.36046793675149
728.2034487902853,-41.00676269421532
728.2105259545477,-40.66412965940749
728.2221511912894,-40.125795350331416
728.2337764280311,-39.617828350665576
728.2454016647728,-39.13930528759161
728.2570269015145,-38.68875358515003
728.2686521382561,-38.26456363310495
728.2869771963861,-37.64501254727316
728.3053022545162,-37.07890073187105
728.3236273126462,-36.55850826733916
728.3419523707762,-36.076712544409716
728.3602774289062,-35.62685064190614
728.3786024870362,-35.20307268273847
728.3969275451662,-34.79993502966901
728.4244242185123,-34.223757201353656
728.4519208918583,-33.66870940627439
728.4794175652044,-33.122098507219704
728.5069142385504,-32.57090320534064
728.5344109118964,-32.00478127305683
728.5619075852425,-31.41063142232101
728.5894042585885,-30.77817596099973
728.6169009319345,-30.089461630238457
728.6443976052806,-29.32896645089198
728.6718942786266,-28.475293210821224
728.6993909519726,-27.502504621924253
728.7268876253187,-26.370440610684128
728.7543842986647,-25.035912968184892
728.7818809720108,-23.42928542739883
728.8093776453568,-21.484311240175995
728.8368743187028,-19.080149537772975
728.8643709920489,-16.13848701777476
728.8918676653949,-12.579554548585923
728.9193643387409,-8.466617898176079
728.946861012087,-4.021518192865375
728.974357685433,0.20800485083079312
729.001854358779,3.703778410251281
729.0208103438792,5.4957342100532935
729.0397663289795,6.757925086284939
729.0587223140797,7.534691265182075
729.0776782991799,7.880777789311419
729.0966342842801,7.864239554825404
729.1155902693803,7.563040099700498
729.1345462544805,7.043617671418447
729.1535022395807,6.358494720262177
729.1724582246809,5.550379548178731
729.1914142097811,4.6514667624218236
729.2103701948813,3.6869086234977506
729.2402881093876,2.078200575340807
729.2702060238939,0.41081273839405835
729.3001239384002,-1.2726396604049723
729.3300418529066,-2.9577823981164912
729.3599597674129,-4.629708197101004
729.3898776819192,-6.280434967291309
729.4197955964255,-7.908011129091485
729.4497135109318,-9.514313762454877
729.495238161501,-11.922023916741315
729.5407628120702,-14.297279806493576
729.5862874626393,-16.65538877553406
729.6318121132085,-19.013730467115536
729.6773367637777,-21.3806662595383
729.7228614143469,-23.759883823927098
729.7683860649161,-26.135388000179347
729.8139107154852,-28.484569358763164
729.8594353660544,-30.758286931096986
729.9049600166236,-32.91431791169894
729.9504846671928,-34.89927612508669
729.996009317762,-36.69201550284958
730.0415339683311,-38.27602791244865
730.0870586189003,-39.66427548149025
