time,voltage
0.0,-80.0
0.0002989975869093987,-80.0025675378232
0.0012925203502985587,-80.00947013682273
0.003739567736800839,-80.02184203488196
0.007828007369448147,-80.03692404524075
0.014054817189508347,-80.05422402648033
0.020281627009568547,-80.06840861413116
0.03142589369846535,-80.08975200986016
0.049177464812045914,-80.11682393016893
0.08259600687046753,-80.15573336686522
0.11601454892888916,-80.18513331019201
0.14943309098731078,-80.20968032143533
0.1828516330457324,-80.23129221152242
0.23935883084848247,-80.26362877317277
0.2958660286512325,-80.2916949564854
0.35237322645398256,-80.3166300174138
0.45046472738883697,-80.35496651114939
0.5485562283236913,-80.38838656372269
0.7064046592979748,-80.43519459911776
0.8642530902722583,-80.47620301414975
1.1479777129412598,-80.54106418443074
1.4317023356102614,-80.59995965282842
1.715426958279263,-80.65550387308689
1.9991515809482645,-80.70839566043709
2.282876203617266,-80.75896700359563
2.783090147448483,-80.84345221977591
3.5419715506172067,-80.96258534533463
4.300852953785931,-81.07315597909486
5.059734356954655,-81.17639639455587
5.818615760123379,-81.27289704576447
6.577497163292103,-81.36313144680507
7.814869873225697,-81.49794501783077
9.052242583159291,-81.61893289224562
10.289615293092886,-81.72747369936073
12.22788292448321,-81.87516365050342
14.166150555873532,-81.99898299851046
16.104418187263853,-82.10234317439
19.34182230796085,-82.23739455359413
22.579226428657847,-82.33536725805698
25.816630549354844,-82.4055892199023
29.05403467005184,-82.45540234058696
32.29143879074884,-82.49050135009834
35.528842911445835,-82.51524187183627
40.506315360914535,-82.5404972197899
45.483787810383234,-82.55733919589007
50.46126025985193,-82.5707934186027
55.43873270932063,-82.5838109882576
63.82519384551253,-82.60847563333311
72.21165498170443,-82.63815967444337
80.59811611789632,-82.67263223106475
88.98457725408822,-82.70980335721785
97.37103839028012,-82.74674554494352
105.75749952647202,-82.78089515592367
114.14396066266391,-82.81088416746903
122.53042179885581,-82.83643376651827
130.9168829350477,-82.85744961373274
139.30334407123962,-82.87383700871625
147.6898052074315,-82.88582634246285
156.0762663436234,-82.89405658090737
164.46272747981527,-82.89926979009283
172.84918861600715,-82.90213417596843
181.23564975219904,-82.9031190782173
189.62211088839092,-82.90264464725159
198.0085720245828,-82.9011572284107
206.3950331607747,-82.89908810457055
214.78149429696657,-82.89670275151585
223.16795543315845,-82.89418781591418
231.55441656935034,-82.89164185066964
239.94087770554222,-82.88918978101327
248.3273388417341,-82.8869363376105
256.713799977926,-82.88492640896162
265.10026111411787,-82.88311256026839
273.48672225030975,-82.88149232615565
281.87318338650164,-82.88006415901451
290.2596445226935,-82.87886075429367
298.6461056588854,-82.87784747599545
307.0325667950773,-82.87699507030067
315.41902793126917,-82.8762575465739
323.80548906746105,-82.87565691348996
332.19195020365294,-82.87516199114465
340.5784113398448,-82.8747735390466
348.9648724760367,-82.87444209881626
357.3513336122286,-82.87417824074163
365.73779474842047,-82.87395168618161
374.12425588461235,-82.87379102301833
382.51071702080424,-82.87364931534893
390.8971781569961,-82.87354910086536
399.283639293188,-82.8734502223259
407.6701004293799,-82.87338978104226
416.05656156557177,-82.8733248126242
424.44302270176365,-82.8732963780817
432.82948383795554,-82.87325034532655
441.2159449741474,-82.87323549537243
449.6024061103393,-82.87320024680746
457.9888672465312,-82.87319996580638
466.37532838272307,-82.8731718016166
474.76178951891495,-82.87317989094461
483.14825065510684,-82.87315360268511
491.5347117912987,-82.87316660223391
499.9211729274906,-82.87314209639062
508.3076340636825,-82.8731614991203
516.6940951998744,-82.8731350900731
525.0805563360663,-82.87315827857527
533.4670174722581,-82.8731749424619
541.85347860845,-82.87321620788752
550.2399397446419,-82.87317798290948
558.6264008808338,-82.87317413222493
567.0128620170257,-82.87314678735433
575.3993231532176,-82.8731737731482
583.7857842894094,-82.87315264939225
592.1722454256013,-82.87317754233968
600.5587065617932,-82.87314371336795
608.9451676979851,-82.87317153018893
617.331628834177,-82.87313978644337
625.7180899703689,-82.87317260281803
634.1045511065607,-82.87313489104065
642.4910122427526,-82.87317145728015
650.8774733789445,-82.87312719943274
659.2639345151364,-82.87316915456819
667.6503956513283,-82.87312131756228
676.0368567875202,-82.87316899167737
684.423317923712,-82.87311408329346
692.8097790599039,-82.87316741436429
700.0,-82.87315808275287
700.0,-82.87315808275287
700.0000521227956,-82.85716698459248
700.0001355763904,-82.83245223680643
700.0003155792828,-82.7819750133195
700.0004955821751,-82.73392331722285
700.0008613515521,-82.64201870388139
700.0012271209291,-82.5567929754729
700.0021319907904,-82.3694696217086
700.0030368606517,-82.20878919324764
700.003941730513,-82.06726285938768
700.0048466003743,-81.9396221050357
700.0062638631518,-81.75851250434619
700.0076811259294,-81.5953445223469
700.0090983887069,-81.44542162089206
700.0114612705439,-81.21611629735649
700.013824152381,-81.00798933410248
700.0175321244726,-80.7135460501196
700.0212400965643,-80.44929298146873
700.0276376419287,-80.0451867545876
700.0340351872931,-79.68699938289053
700.0404327326575,-79.3618117146271
700.0468302780218,-79.06266679723981
700.0532278233862,-78.78481818199302
700.0636216257517,-78.37008894447547
700.0740154281171,-77.9903771165015
700.0844092304826,-77.6375679901463
700.1003581291643,-77.13751572782203
700.116307027846,-76.6769198182163
700.1322559265277,-76.24790873269431
700.1615814112033,-75.52313510454759
700.1909068958789,-74.86437942955776
700.2202323805545,-74.25894596142568
700.2495578652301,-73.69613002998773
700.2788833499058,-73.16725404518321
700.3082088345814,-72.66660042282543
700.355343186338,-71.91157777907405
700.4024775380947,-71.20815710138145
700.4496118898513,-70.54749453513803
700.496746241608,-69.92204982389063
700.5438805933646,-69.32590667659476
700.6222499795547,-68.38794719190439
700.7420022801889,-67.0532766801007
700.8617545808231,-65.807262299074
700.9815068814573,-64.62666809818337
701.1012591820916,-63.4927413065873
701.2210114827258,-62.39049769117031
701.34076378336,-61.308292321680675
701.4605160839942,-60.236159306126474
701.6580351183719,-58.455766959541016
701.7915337178589,-57.20818869824611
701.8249083677306,-56.88429111222056
701.8582830176023,-56.551882607144755
701.891657667474,-56.208388839426384
701.9250323173457,-55.85097630489299
701.9584069672173,-55.474717097620406
701.991781617089,-55.07104121206186
702.0251562669607,-54.62534531573113
702.0585309168324,-54.112642287372836
702.0790893345985,-53.74317299774573
702.0996477523646,-53.303588556864455
702.1202061701307,-52.74624707691893
702.1407645878968,-51.9851513736432
702.1513054159777,-51.47226882149965
702.1584212149367,-51.0612641621367
702.1655370138956,-50.59125195635284
702.1726528128545,-50.06196983057052
702.1797686118134,-49.479366694289645
702.1868844107723,-48.85479932669711
702.1940002097313,-48.20263245180009
702.2011160086902,-47.53635780942737
702.2082318076491,-46.86570562730167
702.215347606608,-46.19647390039762
702.2224634055669,-45.53257488665402
702.2295792045259,-44.87723263003514
702.2366950034848,-44.232787240520985
702.2476844182555,-43.26116569887917
702.2586738330263,-42.320418032845765
702.269663247797,-41.41167389856927
702.2806526625677,-40.535646555260165
702.2916420773385,-39.69173519529267
702.3026314921092,-38.879309084219535
702.3136209068799,-38.09611081175355
702.3246103216507,-37.34009130934583
702.3355997364214,-36.60801382639726
702.3465891511921,-35.89738245419747
702.3575785659629,-35.2040292426691
702.3685679807336,-34.524342836755444
702.3795573955043,-33.85309293486877
702.390546810275,-33.18593719832813
702.4015362250458,-32.51665089102984
702.4125256398165,-31.839686749517448
702.4235150545873,-31.147347884184903
702.434504469358,-30.432464999199862
702.4454938841287,-29.685251421239684
702.4564832988995,-28.895929982545848
702.4674727136702,-28.05137064519824
702.4784621284409,-27.13762513796573
702.4894515432117,-26.13615491244694
702.5004409579824,-25.02615951053969
702.5114303727531,-23.78022378512254
702.5224197875239,-22.366528680377865
702.5334092022946,-20.743766490623866
702.5443986170653,-18.86404314353937
702.5553880318361,-16.668080927649317
702.5663774466068,-14.09284466239334
702.5773668613775,-11.072962588100271
702.5954534662925,-5.059894798144022
702.6079818479104,-0.18433125028695335
702.6205102295283,5.02909088092504
702.6330386111463,10.154419923518809
702.6455669927642,14.759735949656239
702.6580953743821,18.488723837788797
702.670623756,21.285581492856476
702.683152137618,23.22032697168071
702.6956805192359,24.43031047812428
702.7082089008538,25.067638904808412
702.7207372824718,25.269256645499198
702.7332656640897,25.14873836864421
702.7457940457076,24.791799775005043
702.7583224273255,24.258239624757763
702.7708508089435,23.59076399829588
702.7833791905614,22.821681491834575
702.7959075721793,21.97620058496828
702.8084359537972,21.074544911442022
702.8209643354152,20.1326431208514
702.8334927170331,19.16259702131099
702.846021098651,18.17378416239998
702.858549480269,17.173637715459307
702.8710778618869,16.1680466672711
702.8836062435048,15.161765083489646
702.8961346251227,14.158645335063275
702.9086630067407,13.161777903582246
702.9211913883586,12.173684017951912
702.9337197699765,11.19643105615408
702.9525621533902,9.75059444334171
702.9714045368039,8.3371096391415
702.9902469202176,6.958723322817302
703.0090893036313,5.6167974080658745
703.027931687045,4.311479507859701
703.0467740704587,3.0419003247483847
703.0656164538724,1.8064164999475607
703.0844588372861,0.6030078716115752
703.1033012206998,-0.5706223746472643
703.1221436041135,-1.7169966455916805
703.1409859875272,-2.8386946420597283
703.1598283709409,-3.9382660351468948
703.1786707543546,-5.018187162026283
703.1975131377683,-6.080845499048398
703.216355521182,-7.128547665838561
703.2351979045957,-8.163539719451418
703.2540402880094,-9.188023668149777
703.2728826714231,-10.204162257368422
703.2917250548368,-11.214078461729924
703.3105674382505,-12.2198617742606
703.3294098216642,-13.223573181202452
703.3482522050779,-14.227232943877437
703.3670945884916,-15.23278906368012
703.3859369719053,-16.24208978771969
703.404779355319,-17.256859731211893
703.4236217387327,-18.278664317356082
703.4424641221464,-19.30883804057899
703.4613065055601,-20.348404002875586
703.4801488889738,-21.39798319294445
703.4989912723875,-22.45770529519637
703.5178336558012,-23.527076047051484
703.5366760392149,-24.604859605171868
703.5555184226286,-25.688957435123104
703.5743608060423,-26.77635953211511
703.593203189456,-27.863082467808603
703.6120455728696,-28.944219650132126
703.6308879562833,-30.014021904223785
703.6632223155804,-31.80510262536394
703.6955566748774,-33.51086089589114
703.7278910341744,-35.099676279879176
703.7602253934714,-36.54843551020364
703.7925597527684,-37.84555041518587
703.8248941120654,-38.98990687131149
703.8572284713624,-39.988219020877565
703.8895628306594,-40.8534176775532
703.9218971899564,-41.60219375735473
703.9542315492534,-42.25143224482598
703.9865659085505,-42.81657620429605
704.0,-43.029872382193055
704.0,-43.029872382193055
704.0000521218757,-43.04665176543622
704.0001356163133,-43.072600897508714
704.0003162003076,-43.125706573456185
704.0004967843018,-43.17621869346786
704.0008626974637,-43.27246022176129
704.0012286106256,-43.36158237867465
704.0021317416766,-43.55654440818346
704.0030348727277,-43.72317705768141
704.0039380037787,-43.869421875925845
704.0048411348297,-44.00087174882109
704.0062581349252,-44.18699051232237
704.0076751350208,-44.35386882931821
704.0090921351164,-44.50651543037418
704.0114574013455,-44.73904959930553
704.0138226675747,-44.948737939283994
704.0175389713838,-45.24351009024975
704.021255275193,-45.50581984918208
704.0277076884375,-45.90535532778204
704.0341601016821,-46.25576899719179
704.0406125149267,-46.57121675659147
704.0470649281713,-46.85917753344688
704.0535173414158,-47.12467335523436
704.0640650993115,-47.51961735676315
704.0746128572072,-47.87724303482335
704.0851606151028,-48.20620656953348
704.1012334986779,-48.66377702400067
704.1173063822529,-49.0794227117123
704.1333792658279,-49.46119639887177
704.1494521494029,-49.81456431628997
704.1655250329779,-50.14375860510481
704.181597916553,-50.45219886587898
704.197670800128,-50.742586389337745
704.2230570651813,-51.169514083318916
704.2484433302345,-51.56306962928565
704.2738295952878,-51.928136359673225
704.2992158603411,-52.26869621142481
704.3246021253943,-52.588020129103285
704.3499883904476,-52.88871410843987
704.3753746555009,-53.17287543763894
704.4007609205541,-53.44228387276955
704.4261471856074,-53.698482283355936
704.4515334506607,-53.9427828617354
704.476919715714,-54.17629339875754
704.5023059807672,-54.39997069046951
704.5276922458205,-54.61465559314533
704.5530785108738,-54.82108483668909
704.578464775927,-55.01990095041686
704.6038510409803,-55.21166704299475
704.6292373060336,-55.396884869490066
704.6546235710869,-55.57600279043205
704.6984834002781,-55.87223832858476
704.7423432294693,-56.15321517025216
704.7862030586605,-56.420410958892944
704.8300628878517,-56.67506830544723
704.8739227170429,-56.918241052540445
704.9177825462341,-57.15082552123969
704.9894801757887,-57.510184612494555
705.0611778053433,-57.84596032239794
705.1328754348979,-58.16019555917059
705.2045730644525,-58.45448642458979
705.276270694007,-58.730097099421826
705.3479683235616,-58.98807792718531
705.3968222208555,-59.15424048534572
705.4456761181493,-59.31294887178638
705.4945300154432,-59.46451166460267
705.543383912737,-59.60924736115523
705.5922378100308,-59.7474862219754
705.6410917073247,-59.87956687815147
705.6899456046185,-60.00582880073515
705.7387995019124,-60.126601019882635
705.7876533992062,-60.24216305931184
705.8365072965,-60.35280420737826
705.8853611937939,-60.45878447136966
705.9342150910877,-60.560328977898855
705.9830689883815,-60.65764977366416
706.0319228856754,-60.75096006218826
706.0807767829692,-60.84047663356619
706.1296306802631,-60.926417595948294
706.1784845775569,-61.00899936270426
706.2273384748507,-61.08843347052879
706.2761923721446,-61.16492359096332
706.3250462694384,-61.23866360068849
706.3739001667323,-61.309836873083206
706.4227540640261,-61.37861615861979
706.4716079613199,-61.44516335996641
706.5204618586138,-61.50962885056387
706.5693157559076,-61.57215031631384
706.6181696532014,-61.63285139861084
706.6670235504953,-61.69184063448116
706.7158774477891,-61.749211142113616
706.764731345083,-61.805041197292425
706.8135852423768,-61.859395548833035
706.8624391396706,-61.91232718553504
706.9112930369645,-61.963879317629456
706.9601469342583,-62.01408741928205
707.0090008315522,-62.06298121756628
707.057854728846,-62.1105865181524
707.1321504396773,-62.18056647685307
707.2064461505086,-62.24769956993935
707.2807418613398,-62.31206529814422
707.3550375721711,-62.37375019445598
707.4293332830024,-62.43285089528536
707.5036289938337,-62.489474332193815
707.577924704665,-62.54373715740302
707.6522204154962,-62.595764430558475
707.7265161263275,-62.645687080384015
707.8008118371588,-62.693639228513156
707.8751075479901,-62.739757143744676
707.9494032588213,-62.7841794184608
708.0236989696526,-62.827045954873995
708.0979946804839,-62.86849471304171
708.1722903913152,-62.90865813076803
708.2465861021465,-62.94766126176211
708.3617450786289,-63.0060940790671
708.4769040551114,-63.062409535160135
708.5920630315939,-63.116942525245655
708.7072220080763,-63.16997400800334
708.8223809845588,-63.22174014022259
709.0011607183727,-63.30006725727749
709.1799404521867,-63.37644490521044
709.3587201860006,-63.451365375131864
709.5374999198145,-63.525211653283534
709.7162796536285,-63.59830117404604
709.8950593874424,-63.67089631424269
710.0738391212564,-63.743212036065316
710.3621292946851,-63.859670200730015
710.6504194681139,-63.976392460691756
710.9387096415427,-64.09366648543958
711.2269998149715,-64.2117849657258
711.5152899884002,-64.33085395130566
711.803580161829,-64.45095222406053
712.0918703352578,-64.5721020180827
712.3801605086866,-64.69431906296619
712.8326011200638,-64.88825490443512
713.2850417314411,-65.08477670828904
713.7374823428183,-65.28372736810472
714.1899229541956,-65.48512395079902
714.6423635655729,-65.68900980697326
715.0948041769501,-65.89572616343233
715.5472447883274,-66.10534901336277
715.9996853997046,-66.31828148083117
716.4521260110819,-66.53434643775137
716.9045666224591,-66.75394988086076
717.3570072338364,-66.97641554078808
717.8094478452136,-67.20228519131842
718.2618884565909,-67.43071179452691
718.7143290679682,-67.6615478030312
719.1667696793454,-67.89365815140211
719.6192102907227,-68.12773348618781
720.0716509020999,-68.36214723803411
720.5240915134772,-68.59822871643988
720.9765321248544,-68.83343193998483
721.4289727362317,-69.06883144514308
721.8814133476089,-69.30459625477752
722.3338539589862,-69.53984335014826
722.7862945703635,-69.77384983544111
723.5005806733016,-70.14113215958479
724.2148667762397,-70.504273691865
724.9291528791778,-70.8628265862454
725.6434389821159,-71.21650648337673
726.8826400344186,-71.81721578106412
728.1218410867214,-72.39933811355603
729.3610421390241,-72.96171426194987
730.6002431913269,-73.50355859882029
731.8394442436296,-74.02459716739894
733.0786452959323,-74.52460004050059
734.3178463482351,-75.00388219194186
735.5570474005378,-75.46271968700941
736.7962484528406,-75.90161934437005
738.0354495051433,-76.3210874330567
740.0671779001515,-76.96847301723028
742.0989062951596,-77.56818205058542
744.1306346901678,-78.12325638313789
746.1623630851759,-78.63662211074177
749.465772880881,-79.38971095992166
752.7691826765861,-80.05152591072917
756.0725924722911,-80.63238137169203
759.3760022679962,-81.14125024956383
762.6794120637013,-81.58633738969158
765.9828218594064,-81.97484803694265
771.5361824348159,-82.51800908806393
777.0895430102255,-82.94487052942482
782.642903585635,-83.27597127573048
788.1962641610446,-83.52791183293506
793.7496247364542,-83.71469857163662
799.3029853118637,-83.84810342370392
808.1673285781662,-83.97471536372088
817.0316718444687,-84.02248724248105
825.8960151107713,-84.01550381687582
834.7603583770738,-83.97213748814231
843.6247016433763,-83.90643807311277
852.4890449096788,-83.82875964962273
861.3533881759813,-83.74642624245885
870.2177314422838,-83.66432372572861
879.0820747085863,-83.58560481163346
887.9464179748888,-83.5121595920539
901.5513602783279,-83.41197248471238
915.156302581767,-83.32750102398647
928.7612448852061,-83.25752606402958
942.3661871886452,-83.20009244055574
955.9711294920843,-83.1531800754979
976.6269069443632,-83.0980057151847
997.2826843966421,-83.05703813062068
999.9999999999778,-83.05242646739991
1000.0000000000111,-83.05242646739991
1000.0000000000111,-83.05242646739991
