time,voltage
0.0,6.5e-05
0.00039844483379380843,6.500000019780151e-05
0.001964038001880863,6.50000009749974e-05
0.005988562823539511,6.500000297274612e-05
0.013131061746685501,6.500000651787253e-05
0.024540008019524225,6.500001217969911e-05
0.035948954292362945,6.500001784062926e-05
0.05626287782583988,6.500002791817424e-05
0.08987412792370145,6.500004458666205e-05
0.1528875688674551,6.500007581561115e-05
0.21590100981120877,6.500010701772366e-05
0.27891445075496246,6.500013819112932e-05
0.3419278916987161,6.500016933489255e-05
0.45473219423135836,6.500022500939247e-05
0.5675364967640006,6.500028058005388e-05
0.7395424767936335,6.50003651017332e-05
0.9115484568232664,6.500044935361231e-05
1.083554436852899,6.500053332072701e-05
1.3658015095783091,6.500067044743954e-05
1.6480485823037192,6.500080671596056e-05
2.233473466989921,6.500108639872896e-05
2.818898351676123,6.500136176713691e-05
3.4043232363623246,6.500163251704148e-05
3.9897481210485264,6.500189838032901e-05
4.575173005734729,6.500215916847432e-05
5.5922610314233285,6.500259985702204e-05
6.609349057111928,6.500302443802387e-05
7.626437082800528,6.500343273028477e-05
9.200069589155982,6.500403270001684e-05
10.773702095511435,6.500459511239171e-05
13.212917282391277,6.500539695031284e-05
15.65213246927112,6.500612104781565e-05
18.091347656150962,6.500677649440462e-05
20.530562843030804,6.500737234373424e-05
22.969778029910646,6.500791692049436e-05
26.86995909467761,6.500869839210654e-05
30.770140159444573,6.500939087821223e-05
34.670321224211534,6.501001457582063e-05
38.570502288978496,6.501058349482857e-05
42.47068335374546,6.501110846801948e-05
46.37086441851242,6.501159726561746e-05
50.27104548327938,6.50120552796699e-05
54.17122654804634,6.501248632173545e-05
58.0714076128133,6.501289313760166e-05
61.971588677580264,6.501327765737736e-05
65.87176974234723,6.501364127686082e-05
69.7719508071142,6.501398495349662e-05
73.67213187188116,6.50143094663274e-05
77.57231293664813,6.501461553236043e-05
81.4724940014151,6.501490375307601e-05
85.37267506618207,6.501517470849547e-05
89.27285613094904,6.501542897827315e-05
93.173037195716,6.501566722845326e-05
97.07321826048297,6.501589019122173e-05
100.97339932524994,6.501609865975947e-05
104.87358039001691,6.501629334688304e-05
108.77376145478388,6.501647499821082e-05
112.67394251955085,6.501664433451474e-05
116.57412358431782,6.50168021933004e-05
120.47430464908479,6.501694941838239e-05
124.37448571385175,6.501708668681722e-05
128.27466677861872,6.501721459537404e-05
132.1748478433857,6.501733387763737e-05
136.07502890815266,6.501744531490018e-05
139.97520997291963,6.501754949555815e-05
143.8753910376866,6.501764690604835e-05
147.77557210245357,6.501773806919566e-05
151.67575316722053,6.501782359428362e-05
155.5759342319875,6.501790393548151e-05
159.47611529675447,6.501797945419835e-05
163.37629636152144,6.501805052911569e-05
167.2764774262884,6.501811760827921e-05
171.17665849105538,6.501818099510388e-05
175.07683955582235,6.501824095634892e-05
178.97702062058931,6.501829779304975e-05
182.87720168535628,6.501835169614339e-05
186.77738275012325,6.50184028509398e-05
190.67756381489022,6.501845144864238e-05
194.5777448796572,6.50184977300323e-05
198.47792594442416,6.501854180713572e-05
202.37810700919113,6.501858377770999e-05
206.2782880739581,6.501862381668347e-05
210.17846913872506,6.501866211322867e-05
214.07865020349203,6.501869870630269e-05
217.978831268259,6.501873366557742e-05
221.87901233302597,6.501876709455676e-05
225.77919339779294,6.50187990804342e-05
229.6793744625599,6.501882972756392e-05
233.57955552732687,6.501885901876708e-05
237.47973659209384,6.501888698666288e-05
241.3799176568608,6.501891375010545e-05
245.28009872162778,6.501893940062897e-05
249.18027978639475,6.501896392052803e-05
253.08046085116172,6.501898730080504e-05
256.9806419159287,6.501900962985962e-05
260.88082298069565,6.501903098358393e-05
264.7810040454626,6.501905139998517e-05
268.6811851102296,6.501907088750802e-05
272.58136617499656,6.501908950043512e-05
276.48154723976353,6.50191072806544e-05
280.3817283045305,6.501912424945485e-05
284.28190936929747,6.501914042369075e-05
288.18209043406443,6.501915581233249e-05
292.0822714988314,6.50191704548519e-05
295.9824525635984,6.501918440141548e-05
299.88263362836534,6.501919770671e-05
303.7828146931323,6.501921039396222e-05
307.6829957578993,6.501922247011638e-05
311.58317682266625,6.501923396998628e-05
315.4833578874332,6.501924493664298e-05
319.3835389522002,6.501925539936791e-05
323.28372001696715,6.501926539607723e-05
327.1839010817341,6.501927487126364e-05
331.0840821465011,6.501928384935633e-05
334.98426321126806,6.501929239767837e-05
338.884444276035,6.501930051656547e-05
342.784625340802,6.501930817910212e-05
346.68480640556896,6.501931540789862e-05
350.58498747033593,6.50193222744571e-05
354.4851685351029,6.50193287961305e-05
358.38534959986987,6.501933496776617e-05
362.28553066463684,6.501934081286993e-05
366.1857117294038,6.501934636455792e-05
370.0858927941708,6.501935163622743e-05
373.98607385893774,6.501935661978119e-05
377.8862549237047,6.501936132466139e-05
381.7864359884717,6.50193657763833e-05
385.68661705323865,6.501936998461182e-05
389.5867981180056,6.50193739486032e-05
393.4869791827726,6.501937767143258e-05
397.38716024753955,6.501938115030222e-05
401.2873413123065,6.501938442956272e-05
405.1875223770735,6.501938752202284e-05
409.08770344184046,6.501939042568769e-05
412.98788450660743,6.501939315323082e-05
416.8880655713744,6.50193957376109e-05
420.78824663614137,6.501939819997757e-05
424.68842770090833,6.501940053713323e-05
428.5886087656753,6.501940274172691e-05
432.4887898304423,6.50194048061055e-05
436.38897089520924,6.501940674874513e-05
440.2891519599762,6.501940858234467e-05
444.1893330247432,6.501941031600117e-05
448.08951408951015,6.501941194888677e-05
451.9896951542771,6.501941350222086e-05
455.8898762190441,6.501941497936348e-05
459.79005728381105,6.501941639276832e-05
463.690238348578,6.501941774597617e-05
467.590419413345,6.501941901315072e-05
471.49060047811196,6.501942021802586e-05
475.3907815428789,6.501942139844586e-05
479.2909626076459,6.50194225361947e-05
483.19114367241286,6.501942360723656e-05
487.09132473717983,6.501942461074652e-05
490.9915058019468,6.501942560407426e-05
494.89168686671377,6.501942656766683e-05
498.79186793148074,6.501942746817129e-05
502.6920489962477,6.501942832151767e-05
506.5922300610147,6.501942914703939e-05
510.49241112578164,6.501942996608179e-05
514.3925921905486,6.50194307441249e-05
518.2927732553155,6.501943148323548e-05
522.1929543200824,6.501943219596123e-05
526.0931353848493,6.501943289025084e-05
529.9933164496163,6.501943352618398e-05
532.6985128502015,6.501943393323872e-05
535.4037092507867,6.501943432354494e-05
538.108905651372,6.501943468916975e-05
540.8141020519572,6.501943503311926e-05
543.5192984525424,6.501943536174573e-05
546.2244948531277,6.501943568040206e-05
548.9296912537129,6.50194359784687e-05
551.6348876542982,6.501943625796323e-05
554.3400840548834,6.50194365344989e-05
557.0452804554686,6.501943680475108e-05
559.7504768560539,6.501943705951185e-05
562.4556732566391,6.501943729538883e-05
564.3295113289348,6.501943745239032e-05
566.2033494012305,6.501943760609881e-05
568.0771874735262,6.501943775350353e-05
571.1718544923053,6.501943798698367e-05
574.2665215110844,6.501943821044412e-05
577.3611885298635,6.501943842003608e-05
580.4558555486426,6.501943859530876e-05
583.5505225674217,6.501943873694945e-05
586.6451895862008,6.501943887482306e-05
589.7398566049799,6.501943901215326e-05
592.834523623759,6.501943911834185e-05
595.9291906425381,6.501943919883736e-05
598.0710226484506,6.501943925056304e-05
600.2128546543631,6.501943930206e-05
602.3546866602757,6.501943935519617e-05
604.4965186661882,6.5019439408464e-05
606.6383506721007,6.501943946055814e-05
608.7801826780133,6.501943951208282e-05
610.9220146839258,6.501943956440428e-05
613.0638466898383,6.50194396165306e-05
615.2056786957509,6.501943966647237e-05
617.3475107016634,6.50194397133306e-05
619.4893427075759,6.501943975852127e-05
622.7517286610243,6.501943982262553e-05
626.0141146144728,6.501943988234651e-05
629.2765005679212,6.501943993820648e-05
632.5388865213696,6.50194399914366e-05
635.801272474818,6.501944004180475e-05
639.0636584282664,6.501944009082637e-05
642.3260443817148,6.501944013771068e-05
645.5884303351633,6.501944018390054e-05
648.8508162886117,6.501944022812921e-05
652.1132022420601,6.501944027170194e-05
655.3755881955085,6.501944031265297e-05
658.6379741489569,6.501944035254509e-05
661.9003601024053,6.501944038925147e-05
665.1627460558537,6.501944042494786e-05
668.4251320093022,6.501944045836226e-05
671.6875179627506,6.501944048923452e-05
674.949903916199,6.501944052029503e-05
678.2122898696474,6.501944055374146e-05
681.4746758230958,6.5019440588014e-05
684.7370617765442,6.501944062327527e-05
687.9994477299927,6.501944065866007e-05
691.2618336834411,6.501944069354349e-05
697.6035419212263,6.501944076190032e-05
700.0,6.501944078524418e-05
700.0,6.501944078524418e-05
700.0000693142402,6.501944078524485e-05
700.0001938428442,6.501944078524604e-05
700.000522085762,6.501944078524918e-05
700.0008503286798,6.501944078525233e-05
700.0015409408652,6.501944078525896e-05
700.0022315530506,6.501944078526557e-05
700.0039461804208,6.501944078528182e-05
700.0056608077911,6.501944078529773e-05
700.0073754351613,6.501944078531281e-05
700.0090900625315,6.501944078532649e-05
700.0117660285397,6.501944078534314e-05
700.0144419945478,6.501944078535159e-05
700.0185697522669,6.501944078533958e-05
700.022697509986,6.501944078528724e-05
700.026825267705,6.501944078518248e-05
700.0335132745745,6.50194407848711e-05
700.040201281444,6.501944078435054e-05
700.0523767672323,6.501944078274983e-05
700.0645522530207,6.501944078019049e-05
700.076727738809,6.501944077659465e-05
700.0889032245974,6.501944077195563e-05
700.1010787103858,6.501944076631919e-05
700.1209115383327,6.501944075529593e-05
700.1407443662797,6.501944074246391e-05
700.1605771942267,6.501944072850233e-05
700.1916604332736,6.501944070640729e-05
700.2227436723205,6.501944068712135e-05
700.2538269113674,6.501944067449383e-05
700.3137809056981,6.501944068439193e-05
700.3737349000288,6.501944076750264e-05
700.4336888943595,6.501944095781857e-05
700.4936428886903,6.501944129496522e-05
700.553596883021,6.501944182000152e-05
700.6443731920314,6.501944307275041e-05
700.7351495010417,6.501944503271307e-05
700.8259258100521,6.501944790098164e-05
700.9167021190625,6.501945191047665e-05
701.0074784280729,6.501945733181082e-05
701.1626171904936,6.501947080924369e-05
701.3177559529144,6.50194913719426e-05
701.4728947153351,6.501952169800688e-05
701.6280334777558,6.501956544549081e-05
701.7831722401766,6.50196276732273e-05
701.9383110025973,6.50197154491858e-05
702.093449765018,6.501983882634838e-05
702.1322344556232,6.501987673583495e-05
702.1710191462284,6.501991800961144e-05
702.2098038368337,6.501996295921403e-05
702.2485885274389,6.502001192545514e-05
702.2873732180441,6.502006528674916e-05
702.3134528949238,6.502010384960872e-05
702.3395325718035,6.502014473370519e-05
702.3460524910234,6.50201553353318e-05
702.3525724102434,6.502016609427925e-05
702.3590923294634,6.502017701319829e-05
702.3720902327836,6.50201992691461e-05
702.385088136104,6.502022219436546e-05
702.3925096500751,6.502023559327812e-05
702.3999311640463,6.502024922273583e-05
702.4073526780174,6.502026308763476e-05
702.4147741919886,6.502027719307832e-05
702.4221957059598,6.502029154445467e-05
702.4267588934234,6.502030049307699e-05
702.4313220808871,6.502030953823525e-05
702.4358852683507,6.502031868139876e-05
702.4404484558144,6.50203279241066e-05
702.445011643278,6.502033726797651e-05
702.4495748307417,6.50203467147121e-05
702.4541380182053,6.502035626610892e-05
702.4619243160707,6.502037281108562e-05
702.4697106139362,6.50203896764661e-05
702.4774969118016,6.502040687325351e-05
702.485283209667,6.502042441350727e-05
702.4930695075325,6.502044231037925e-05
702.5008558053979,6.502046057814761e-05
702.5086421032634,6.502047923228164e-05
702.5164284011288,6.502049828952555e-05
702.5242146989942,6.502051776798604e-05
702.5320009968597,6.502053768721818e-05
702.5397872947251,6.502055806831286e-05
702.5475735925905,6.502057893398843e-05
702.555359890456,6.502060030868511e-05
702.5631461883214,6.502062221867084e-05
702.5709324861868,6.502064469213554e-05
702.5787187840523,6.502066775929645e-05
702.5865050819177,6.502069145250534e-05
702.5942913797832,6.502071580636012e-05
702.6020776776486,6.502074085782253e-05
702.609863975514,6.502076664634387e-05
702.6176502733795,6.502079321400226e-05
702.6254365712449,6.502082060564694e-05
702.6332228691103,6.502084886906675e-05
702.6410091669758,6.502087805516358e-05
702.6487954648412,6.502090821816362e-05
702.6565817627067,6.5020939415849e-05
702.6643680605721,6.502097170981583e-05
702.6721543584375,6.502100516577013e-05
702.6771990100328,6.502102749462623e-05
702.6822436616281,6.502105036072797e-05
702.6872883132235,6.50210737851308e-05
702.6923329648188,6.50210977898414e-05
702.6973776164141,6.502112239788253e-05
702.7024222680094,6.502114763336288e-05
702.7074669196047,6.502117352155112e-05
702.7125115712,6.502120008895701e-05
702.7175562227953,6.502122736342209e-05
702.7226008743907,6.502125537422135e-05
702.727645525986,6.50212841521768e-05
702.7326901775813,6.502131372978451e-05
702.7377348291766,6.502134414135693e-05
702.7427794807719,6.502137542318317e-05
702.7478241323672,6.502140761371004e-05
702.7528687839625,6.502144075374688e-05
702.7579134355578,6.502147488669823e-05
702.7629580871532,6.502151005882871e-05
702.7680027387485,6.502154631957718e-05
702.7730473903438,6.502158372186785e-05
702.7780920419391,6.502162232255282e-05
702.7831366935344,6.502166218284211e-05
702.7881813451297,6.502170336880916e-05
702.793225996725,6.50217459520464e-05
702.7982706483203,6.502179001036033e-05
702.8033152999157,6.502183562856748e-05
702.808359951511,6.502188289942454e-05
702.8134046031063,6.502193192470535e-05
702.8184492547016,6.502198281643528e-05
702.8234939062969,6.502203569829656e-05
702.8285385578922,6.502209070722022e-05
702.8335832094875,6.5022147995178e-05
702.8386278610828,6.502220773118364e-05
702.8436725126782,6.502227010350835e-05
702.8487171642735,6.502233532211178e-05
702.8537618158688,6.50224036212862e-05
702.8588064674641,6.502247526250997e-05
702.8638511190594,6.502255053750567e-05
702.8688957706547,6.502262977149937e-05
702.87394042225,6.50227133266802e-05
702.8789850738453,6.502280160577316e-05
702.8840297254407,6.502289505623323e-05
702.889074377036,6.50229941738909e-05
702.8941190286313,6.502309950766731e-05
702.8991636802266,6.502321166384492e-05
702.9042083318219,6.502333131104809e-05
702.9092529834172,6.502345918536969e-05
702.9142976350125,6.502359609576761e-05
702.9193422866078,6.502374292976522e-05
702.9243869382032,6.50239006594408e-05
702.9294315897985,6.502407034769027e-05
702.9344762413938,6.502425315474901e-05
702.9395208929891,6.502445034494728e-05
702.9445655445844,6.502466329365892e-05
702.9496101961797,6.502489349439322e-05
702.954654847775,6.502514256597313e-05
702.9596994993703,6.502541225973787e-05
702.9647441509657,6.50257044667021e-05
702.969788802561,6.502602122459907e-05
702.9748334541563,6.502636472473328e-05
702.9798781057516,6.502673731851277e-05
702.9849227573469,6.502714152380537e-05
702.9899674089422,6.502758003078321e-05
702.9950120605375,6.502805570720116e-05
703.0000567121328,6.502857160317967e-05
703.0051013637282,6.502913095553517e-05
703.0101460153235,6.50297371914264e-05
703.0151906669188,6.503039393129395e-05
703.0202353185141,6.503110499112354e-05
703.0252799701094,6.503187438403197e-05
703.0303246217047,6.503270632115575e-05
703.0353692733,6.503360521183437e-05
703.0404139248953,6.503457566310003e-05
703.0454585764907,6.5035622478497e-05
703.050503228086,6.503675065625709e-05
703.0555478796813,6.503796538686102e-05
703.0605925312766,6.503927205001913e-05
703.0656371828719,6.504067621110919e-05
703.0706818344672,6.504218361711288e-05
703.0757264860625,6.504380019209381e-05
703.0807711376578,6.504553203243879e-05
703.0858157892532,6.504738540117507e-05
703.0908604408485,6.504936672227244e-05
703.0959050924438,6.505148257522224e-05
703.1009497440391,6.505373968878512e-05
703.1059943956344,6.505614493447566e-05
703.1110390472297,6.505870531999113e-05
703.116083698825,6.50614279825863e-05
703.1211283504203,6.506432018235948e-05
703.1261730020157,6.50673892954552e-05
703.131217653611,6.507064280721928e-05
703.1362623052063,6.507408830534602e-05
703.1413069568016,6.507773347304668e-05
703.1463516083969,6.508158608225994e-05
703.1513962599922,6.508565398692187e-05
703.1564409115875,6.508994511631176e-05
703.1614855631829,6.509446746848926e-05
703.1665302147782,6.509922910383683e-05
703.1715748663735,6.510423813871908e-05
703.1766195179688,6.510950273926868e-05
703.1816641695641,6.511503111532745e-05
703.1867088211594,6.512083151446171e-05
703.1917534727547,6.51269122161819e-05
703.19679812435,6.51332815263392e-05
703.2018427759454,6.513994777163694e-05
703.2068874275407,6.514691929428436e-05
703.211932079136,6.515420444682089e-05
703.2169767307313,6.516181158710711e-05
703.2220213823266,6.516974907347214e-05
703.2270660339219,6.517802526001379e-05
703.2321106855172,6.518664849205169e-05
703.2371553371125,6.519562710173309e-05
703.2421999887079,6.52049694037886e-05
703.2472446403032,6.52146836914346e-05
703.2522892918985,6.522477823241837e-05
703.2573339434938,6.523526126520237e-05
703.2623785950891,6.524614099528393e-05
703.2674232466844,6.525742559164636e-05
703.2724678982797,6.526912318333707e-05
703.277512549875,6.52812418561688e-05
703.2825572014704,6.52937896494964e-05
703.2876018530657,6.530677455324045e-05
703.292646504661,6.532020450495071e-05
703.2976911562563,6.533408738682969e-05
703.3027358078516,6.53484310230098e-05
703.3077804594469,6.536324317693806e-05
703.3128251110422,6.537853154882881e-05
703.3178697626375,6.539430377318879e-05
703.3229144142329,6.541056741642645e-05
703.3279590658282,6.542732997454778e-05
703.3330037174235,6.544459887093405e-05
703.3380483690188,6.546238145419514e-05
703.3430930206141,6.548068499609375e-05
703.3481376722094,6.54995166895376e-05
703.3531823238047,6.5518883646637e-05
703.3582269754,6.553879289682525e-05
703.3632716269954,6.555925138503899e-05
703.3683162785907,6.558026596995592e-05
703.373360930186,6.560184342228722e-05
703.3784055817813,6.562399042312247e-05
703.3834502333766,6.564671356228939e-05
703.3884948849719,6.567001933687201e-05
703.3935395365672,6.569391414971148e-05
703.3985841881625,6.571840430783931e-05
703.4036288397579,6.574349602107537e-05
703.4086734913532,6.576919540067298e-05
703.4137181429485,6.57955084579832e-05
703.4187627945438,6.582244110314358e-05
703.4238074461391,6.584999914380221e-05
703.4288520977344,6.587818828388067e-05
703.4338967493297,6.590701412237366e-05
703.438941400925,6.593648215218218e-05
703.4439860525204,6.596659775897806e-05
703.4490307041157,6.5997366220099e-05
703.454075355711,6.602879270347373e-05
703.4591200073063,6.606088226657646e-05
703.4641646589016,6.609363985541024e-05
703.4692093104969,6.612707030351816e-05
703.4742539620922,6.616117833102194e-05
703.4792986136875,6.61959685436871e-05
703.4843432652829,6.623144543199603e-05
703.4893879168782,6.626761337030467e-05
703.4944325684735,6.630447661599055e-05
703.4994772200688,6.63420393085683e-05
703.5045218716641,6.638030546889294e-05
703.5095665232594,6.64192789983909e-05
703.5146111748547,6.645896367830452e-05
703.51965582645,6.649936316895303e-05
703.5247004780454,6.654048100901629e-05
703.5297451296407,6.658232061484363e-05
703.534789781236,6.662488527978698e-05
703.5398344328313,6.666817817355685e-05
703.5448790844266,6.671220234160039e-05
703.5499237360219,6.67569607045013e-05
703.5549683876172,6.680245605740163e-05
703.5600130392125,6.684869106944523e-05
703.5650576908079,6.689566828324279e-05
703.5701023424032,6.694339011435808e-05
703.5751469939985,6.699185885081524e-05
