time,voltage
0.0,6.5e-05
0.0002989975869093987,6.500000005801729e-05
0.0012925203502985587,6.500000025079706e-05
0.003739567736800839,6.50000007255971e-05
0.007828007369448147,6.500000151883232e-05
0.014054817189508347,6.500000272686125e-05
0.020281627009568547,6.500000393481045e-05
0.03142589369846535,6.5000006096531e-05
0.049177464812045914,6.500000953941516e-05
0.08259600687046753,6.500001601886402e-05
0.11601454892888916,6.500002249559417e-05
0.14943309098731078,6.500002896922773e-05
0.1828516330457324,6.500003543958236e-05
0.23935883084848247,6.500004637215222e-05
0.2958660286512325,6.500005729416733e-05
0.35237322645398256,6.500006820508421e-05
0.45046472738883697,6.50000871171524e-05
0.5485562283236913,6.500010599223195e-05
0.7064046592979748,6.500013628379337e-05
0.8642530902722583,6.500016647032175e-05
1.1479777129412598,6.500022044940634e-05
1.4317023356102614,6.500027404838944e-05
1.715426958279263,6.500032725313627e-05
1.9991515809482645,6.500038004559724e-05
2.282876203617266,6.500043241475259e-05
2.783090147448483,6.500052368631973e-05
3.5419715506172067,6.500065949294846e-05
4.300852953785931,6.500079199892918e-05
5.059734356954655,6.500092112167311e-05
5.818615760123379,6.50010468285419e-05
6.577497163292103,6.500116912077049e-05
7.814869873225697,6.500136129644077e-05
9.052242583159291,6.500154469611659e-05
10.289615293092886,6.500171960957448e-05
12.22788292448321,6.500197748102899e-05
14.166150555873532,6.500221706583515e-05
16.104418187263853,6.500244001191834e-05
19.34182230796085,6.50027797033295e-05
22.579226428657847,6.50030849490477e-05
25.816630549354844,6.500336180076583e-05
29.05403467005184,6.500361553925105e-05
32.29143879074884,6.500385045499548e-05
35.528842911445835,6.500406977876304e-05
40.506315360914535,6.500438198763498e-05
45.483787810383234,6.500466923717604e-05
50.46126025985193,6.500493561424473e-05
55.43873270932063,6.500518375760549e-05
63.82519384551253,6.500556437348334e-05
72.21165498170443,6.50059010333341e-05
80.59811611789632,6.500619732644152e-05
88.98457725408822,6.500645400916327e-05
97.37103839028012,6.500667630667895e-05
105.75749952647202,6.500686974273002e-05
114.14396066266391,6.50070350035955e-05
122.53042179885581,6.500717423645396e-05
130.9168829350477,6.500729349911256e-05
139.30334407123962,6.50073973254465e-05
147.6898052074315,6.500748675820278e-05
156.0762663436234,6.500756262761282e-05
164.46272747981527,6.500762806215007e-05
172.84918861600715,6.500768652647333e-05
181.23564975219904,6.500773919824043e-05
189.62211088839092,6.500778561645797e-05
198.0085720245828,6.50078263733585e-05
206.3950331607747,6.500786321076527e-05
214.78149429696657,6.50078972454623e-05
223.16795543315845,6.500792828003777e-05
231.55441656935034,6.500795617098745e-05
239.94087770554222,6.50079812861873e-05
248.3273388417341,6.500800428563311e-05
256.713799977926,6.500802537709348e-05
265.10026111411787,6.50080445136975e-05
273.48672225030975,6.500806173210002e-05
281.87318338650164,6.500807729657128e-05
290.2596445226935,6.500809142214752e-05
298.6461056588854,6.500810428750906e-05
307.0325667950773,6.50081158651995e-05
315.41902793126917,6.500812624021763e-05
323.80548906746105,6.500813552494975e-05
332.19195020365294,6.500814391485936e-05
340.5784113398448,6.500815145534273e-05
348.9648724760367,6.500815823379923e-05
357.3513336122286,6.500816422298353e-05
365.73779474842047,6.50081695854963e-05
374.12425588461235,6.500817437768376e-05
382.51071702080424,6.500817870205e-05
390.8971781569961,6.500818250790354e-05
399.283639293188,6.500818591788441e-05
407.6701004293799,6.500818890751485e-05
416.05656156557177,6.500819162323271e-05
424.44302270176365,6.500819401080343e-05
432.82948383795554,6.500819616600342e-05
441.2159449741474,6.500819801770106e-05
449.6024061103393,6.500819972438967e-05
457.9888672465312,6.50082011892912e-05
466.37532838272307,6.500820254976759e-05
474.76178951891495,6.500820369438891e-05
483.14825065510684,6.50082047705951e-05
491.5347117912987,6.500820565265247e-05
499.9211729274906,6.500820652253045e-05
508.3076340636825,6.500820721025637e-05
516.6940951998744,6.500820790157692e-05
525.0805563360663,6.500820842588748e-05
533.4670174722581,6.500820881247282e-05
541.85347860845,6.500820911593164e-05
550.2399397446419,6.500820951025459e-05
558.6264008808338,6.500820987229519e-05
567.0128620170257,6.50082103348293e-05
575.3993231532176,6.500821059131726e-05
583.7857842894094,6.500821085695044e-05
592.1722454256013,6.50082110156016e-05
600.5587065617932,6.500821128729162e-05
608.9451676979851,6.500821143329126e-05
617.331628834177,6.500821168022775e-05
625.7180899703689,6.50082117510951e-05
634.1045511065607,6.500821193793183e-05
642.4910122427526,6.500821197245979e-05
650.8774733789445,6.500821216876491e-05
659.2639345151364,6.50082121831419e-05
667.6503956513283,6.500821235857877e-05
676.0368567875202,6.50082123224709e-05
684.423317923712,6.500821249285343e-05
692.8097790599039,6.500821244362325e-05
700.0,6.500821250534398e-05
700.0,6.500821250534398e-05
700.0000521228095,6.500821250534441e-05
700.0001355764348,6.50082125053451e-05
700.0003155794074,6.50082125053466e-05
700.0004955823799,6.500821250534809e-05
700.0008613518955,6.500821250535111e-05
700.0012271214111,6.50082125053541e-05
700.002131991608,6.500821250536127e-05
700.003036861805,6.500821250536792e-05
700.0039417320019,6.500821250537336e-05
700.0048466021988,6.500821250537682e-05
700.0062638655456,6.500821250537576e-05
700.0076811288925,6.500821250536401e-05
700.0090983922394,6.500821250533821e-05
700.0114612752036,6.500821250525336e-05
700.0138241581678,6.500821250510912e-05
700.0175321321605,6.500821250474213e-05
700.0212401061531,6.500821250419271e-05
700.027637654671,6.500821250279939e-05
700.034035203189,6.500821250081826e-05
700.0404327517069,6.500821249829064e-05
700.0468303002249,6.500821249524654e-05
700.0532278487428,6.500821249173354e-05
700.0636216560459,6.500821248518957e-05
700.074015463349,6.500821247783181e-05
700.0844092706521,6.500821246991484e-05
700.1003581767756,6.50082124572548e-05
700.116307082899,6.500821244473728e-05
700.1322559890224,6.500821243320158e-05
700.1615814867364,6.500821241723716e-05
700.1909069844504,6.500821241218018e-05
700.2202324821644,6.500821242265755e-05
700.2495579798784,6.50082124532655e-05
700.2788834775924,6.500821250853854e-05
700.3082089753065,6.500821259302796e-05
700.3553433549005,6.500821280182569e-05
700.4024777344945,6.500821311800036e-05
700.4496121140885,6.500821356215075e-05
700.4967464936825,6.50082141559632e-05
700.5438808732765,6.500821492257396e-05
700.6222503069565,6.50082166477252e-05
700.7420026655367,6.500822063167223e-05
700.8617550241169,6.500822672320428e-05
700.981507382697,6.500823557151767e-05
701.1012597412772,6.500824800194079e-05
701.2210120998574,6.50082650766202e-05
701.3407644584375,6.500828816278866e-05
701.4605168170177,6.50083190258738e-05
701.6580359606731,6.500839351322706e-05
701.7915347571596,6.50084669081636e-05
701.8249094562813,6.500848901729585e-05
701.8582841554029,6.500851289056277e-05
701.8916588545245,6.50085386728196e-05
701.9250335536461,6.500856652154407e-05
701.9584082527678,6.500859661129392e-05
701.9917829518894,6.500862913636902e-05
702.025157651011,6.500866431407228e-05
702.0585323501326,6.500870239096826e-05
702.0790908056359,6.500872741050517e-05
702.0996492611392,6.500875371374098e-05
702.1202077166425,6.500878138643978e-05
702.1407661721458,6.500881052794376e-05
702.1513070297267,6.500882607693999e-05
702.1584228316639,6.500883681933667e-05
702.165538633601,6.500884776754717e-05
702.1726544355382,6.500885892915036e-05
702.1797702374754,6.500887031288777e-05
702.1868860394126,6.500888192879404e-05
702.1940018413497,6.500889378865631e-05
702.2011176432869,6.500890590623525e-05
702.2082334452241,6.500891829755307e-05
702.2153492471613,6.500893098110914e-05
702.2224650490984,6.500894397801786e-05
702.2295808510356,6.500895731212754e-05
702.2366966529728,6.500897101014448e-05
702.2476860711007,6.500899294985355e-05
702.2586754892286,6.50090159533209e-05
702.2696649073565,6.500904016352549e-05
702.2806543254844,6.500906574431331e-05
702.2916437436123,6.500909288236994e-05
702.3026331617402,6.500912178934823e-05
702.3136225798681,6.500915270434994e-05
702.324611997996,6.500918589682227e-05
702.335601416124,6.500922166981277e-05
702.3465908342519,6.500926036351788e-05
702.3575802523798,6.500930235935043e-05
702.3685696705077,6.500934808456039e-05
702.3795590886356,6.500939801764905e-05
702.3905485067635,6.500945269463123e-05
702.4015379248914,6.500951271646373e-05
702.4125273430193,6.500957875773993e-05
702.4235167611472,6.500965157734204e-05
702.4345061792751,6.500973203143817e-05
702.445495597403,6.500982108972255e-05
702.4564850155309,6.500991985553915e-05
702.4674744336588,6.501002959171836e-05
702.4784638517867,6.501015175384589e-05
702.4894532699146,6.501028803425442e-05
702.5004426880425,6.501044042043821e-05
702.5114321061704,6.50106112750174e-05
702.5224215242984,6.501080344667824e-05
702.5334109424263,6.501102042899048e-05
702.5444003605542,6.501126659213798e-05
702.5553897786821,6.501154753288965e-05
702.56637919681,6.501187061564254e-05
702.5773686149379,6.501224583461725e-05
702.5954552275549,6.501301861538188e-05
702.607983610946,6.501371298392472e-05
702.6205119943371,6.501460065658557e-05
702.6330403777282,6.501576790500967e-05
702.6455687611193,6.501732076068352e-05
702.6580971445104,6.501938496338738e-05
702.6706255279015,6.502208737570677e-05
702.6831539112926,6.50255370833842e-05
702.6956822946837,6.50298369669047e-05
702.7082106780748,6.503508237823455e-05
702.7207390614659,6.50413554790559e-05
702.733267444857,6.504872998850486e-05
702.7457958282481,6.505727852244946e-05
702.7583242116392,6.506707660916467e-05
702.7708525950303,6.507820208726935e-05
702.7833809784214,6.509073350293725e-05
702.7959093618125,6.510474918493847e-05
702.8084377452036,6.512032738332164e-05
702.8209661285947,6.513754679431767e-05
702.8334945119858,6.51564867465952e-05
702.8460228953769,6.51772268619224e-05
702.858551278768,6.519984653973219e-05
702.8710796621591,6.522442455173197e-05
702.8836080455502,6.525103875459575e-05
702.8961364289413,6.527976584533875e-05
702.9086648123324,6.531068113139079e-05
702.9211931957235,6.534385832254248e-05
702.9337215791146,6.537936936028808e-05
702.9525639601583,6.543732517002931e-05
702.9714063412019,6.550094803277142e-05
702.9902487222456,6.55704572568949e-05
703.0090911032893,6.564606112279742e-05
703.027933484333,6.57279574508087e-05
703.0467758653766,6.58163346105809e-05
703.0656182464203,6.591137185400515e-05
703.084460627464,6.601324020703263e-05
703.1033030085076,6.612210312595504e-05
703.1221453895513,6.623811765984558e-05
703.140987770595,6.636143508013996e-05
703.1598301516386,6.649220077751884e-05
703.1786725326823,6.66305542468628e-05
703.197514913726,6.677662928419238e-05
703.2163572947696,6.69305539103861e-05
703.2351996758133,6.709245001049819e-05
703.254042056857,6.726243301069264e-05
703.2728844379006,6.744061168525436e-05
703.2917268189443,6.762708814573416e-05
703.310569199988,6.782195809814043e-05
703.3294115810316,6.802531113147697e-05
703.3482539620753,6.823723071677505e-05
703.367096343119,6.845779408745862e-05
703.3859387241627,6.868707235464517e-05
703.4047811052063,6.892513071184897e-05
703.42362348625,6.917202834347439e-05
703.4424658672937,6.942781808872759e-05
703.4613082483373,6.969254616601395e-05
703.480150629381,6.996625190862608e-05
703.4989930104247,7.024896720375301e-05
703.5178353914683,7.054071557593993e-05
703.536677772512,7.084151107409542e-05
703.5555201535557,7.115135697797005e-05
703.5743625345993,7.147024420309617e-05
703.593204915643,7.179814943197221e-05
703.6120472966867,7.213503314394927e-05
703.6308896777304,7.248083771125072e-05
703.6632240457463,7.309480969521462e-05
703.6955584137623,7.373428055897329e-05
703.7278927817783,7.439852930349834e-05
703.7602271497943,7.508668218391344e-05
703.7925615178103,7.579775786432051e-05
703.8248958858263,7.653071380609397e-05
703.8572302538423,7.728448366533683e-05
703.8895646218583,7.805801599197709e-05
703.9218989898743,7.885030890719197e-05
703.9542333578903,7.966041551036434e-05
703.9865677259063,8.048741958340128e-05
704.0,8.083572611288956e-05
704.0,8.083572611288956e-05
704.0000521218896,8.083708298303705e-05
704.0001356163577,8.083925666824582e-05
704.0003162004328,8.08439584601075e-05
704.000496784508,8.084866073900729e-05
704.000862697807,8.085819019042244e-05
704.001228611106,8.08677214209903e-05
704.0021317424876,8.089125455951901e-05
704.0030348738692,8.091479985253984e-05
704.0039380052508,8.093835758820276e-05
704.0048411366324,8.096192802122268e-05
704.0062581373006,8.099893600565349e-05
704.0076751379688,8.103597690598368e-05
704.009092138637,8.107305163821823e-05
704.0114574059969,8.113501528595157e-05
704.0138226733568,8.119707851047659e-05
704.0175389790834,8.129479832975914e-05
704.02125528481,8.139277137781237e-05
704.0277077014302,8.156347615939003e-05
704.0341601180505,8.173494100086679e-05
704.0406125346708,8.190714353962303e-05
704.0470649512911,8.208006715744544e-05
704.0535173679114,8.225369109082218e-05
704.0640651311179,8.253895956702951e-05
704.0746128943244,8.282593749883061e-05
704.085160657531,8.311453300537048e-05
704.1012335502477,8.355722106982338e-05
704.1173064429644,8.400319414296764e-05
704.1333793356811,8.445220139453397e-05
704.1494522283978,8.490401442040972e-05
704.1655251211145,8.535842479635829e-05
704.1815980138311,8.581524073965388e-05
704.1976709065478,8.62742835773745e-05
704.2230574016985,8.700345389662187e-05
704.2484438968492,8.773714899413637e-05
704.2738303919998,8.847481157081539e-05
704.2992168871505,8.921593208787595e-05
704.3246033823011,8.996004011168393e-05
704.3499898774518,9.070669821669935e-05
704.3753763726024,9.14555017601092e-05
704.4007628677531,9.220607597777315e-05
704.4261493629037,9.295807329912144e-05
704.4515358580544,9.371116983415485e-05
704.476922353205,9.446506261513207e-05
704.5023088483557,9.521946809481447e-05
704.5276953435064,9.597412124785996e-05
704.553081838657,9.672877424678391e-05
704.5784683338077,9.748319467540271e-05
704.6038548289583,9.823716398701407e-05
704.629241324109,9.899047655761515e-05
704.6546278192596,9.974293899237404e-05
704.6984871809834,0.00010104041083001768
704.7423465427072,0.00010233393845295357
704.786205904431,0.00010362273813123602
704.8300652661547,0.00010490610022495299
704.8739246278785,0.000106183380634691
704.9177839896023,0.00010745399389359976
704.9894813566242,0.00010951534627014648
705.0611787236461,0.00011155541791023558
705.132876090668,0.0001135724510698612
705.2045734576899,0.00011556495412509707
705.2762708247118,0.00011753165334871174
705.3479681917337,0.00011947147189209643
705.3968223348197,0.0001207773909350365
705.4456764779057,0.000122070176782791
705.4945306209918,0.0001233496298572218
705.5433847640778,0.0001246155845249178
705.5922389071638,0.000125867906691264
705.6410930502499,0.00012710649136676473
705.6899471933359,0.00012833126005861248
705.738801336422,0.00012954215791149165
705.787655479508,0.00013073915075933416
705.836509622594,0.00013192222226805092
705.88536376568,0.00013309137174036077
705.9342179087661,0.00013424661242844607
705.9830720518521,0.00013538797022721546
706.0319261949381,0.0001365154828629422
706.0807803380242,0.00013762919929931875
706.1296344811102,0.00013872917897946152
706.1784886241962,0.00013981549087284614
706.2273427672823,0.0001408882124723328
706.2761969103683,0.00014194742880107347
706.3250510534543,0.00014299323142466543
706.3739051965404,0.0001440257175020338
706.4227593396264,0.00014504498893898026
706.4716134827124,0.00014605115166392945
706.5204676257985,0.00014704431498024172
706.5693217688845,0.0001480245909412272
706.6181759119705,0.0001489920937434948
706.6670300550566,0.00014994693915521042
706.7158841981426,0.00015088924403643713
706.7647383412286,0.00015181912594975616
706.8135924843147,0.00015273670285268946
706.8624466274007,0.0001536420928786257
706.9113007704867,0.00015453541419873659
706.9601549135728,0.00015541678494806075
707.0090090566588,0.00015628632319619843
707.0578631997448,0.00015714414694499202
707.1321579702953,0.00015842649147442605
707.2064527408459,0.00015968243162576166
707.2807475113964,0.00016091238194895416
707.3550422819469,0.00016211675690295393
707.4293370524974,0.00016329597079877065
707.503631823048,0.00016445043759319704
707.5779265935985,0.00016558057063466932
707.652221364149,0.00016668678227800825
707.7265161346995,0.00016776948335777876
707.80081090525,0.00016882908266266676
707.8751056758006,0.00016986598651930462
707.9494004463511,0.00017088059839966512
708.0236952169016,0.0001718733184310278
708.0979899874521,0.00017284454287726684
708.1722847580027,0.0001737946637362086
708.2465795285532,0.00017472406841531453
708.3617400961488,0.00017612464156128183
708.4769006637443,0.00017747775604111924
708.5920612313399,0.00017878477698718594
708.7072217989355,0.00018004703520207703
708.8223823665311,0.00018126582663524675
709.0011625225208,0.000183074758176279
709.1799426785104,0.0001847865149968698
709.3587228345001,0.00018640545376492017
709.5375029904898,0.0001879357424380502
709.7162831464794,0.0001893813659259322
709.8950633024691,0.0001907461326050469
710.0738434584588,0.0001920336812326456
710.3621337891843,0.00019395601561545493
710.6504241199099,0.00019570028920484932
710.9387144506354,0.0001972792521092335
711.227004781361,0.00019870474043091752
711.5152951120865,0.0001999877486411559
711.803585442812,0.00020113848422821963
712.0918757735376,0.00020216642356536165
712.3801661042631,0.0002030803651234594
712.8326069134179,0.00020430429054846283
713.2850477225726,0.00020529618156978869
713.7374885317273,0.0002060816094730728
714.189929340882,0.00020668336472498693
714.6423701500368,0.0002071217804005339
715.0948109591915,0.00020741498961831655
715.5472517683462,0.0002075791568173841
715.9996925775009,0.00020762868996405023
716.4521333866556,0.0002075764389190073
716.9045741958104,0.00020743386290713835
717.3570150049651,0.0002072111880615961
717.8094558141198,0.00020691753365309926
718.2618966232745,0.00020656104035262908
718.7143374324293,0.00020614897321593866
719.166778241584,0.00020568781762899324
719.6192190507387,0.00020518335972195717
720.0716598598934,0.00020464076919907
720.5241006690482,0.00020406465596320403
720.9765414782029,0.00020345914172329623
721.4289822873576,0.0002028279016108973
721.8814230965123,0.00020217421509340232
722.333863905667,0.00020150101212455126
722.7863047148218,0.00020081090551549654
723.5005905102416,0.00019969241133153338
724.2148763056615,0.00019854532104900997
724.9291621010814,0.0001973763749604709
725.6434478965012,0.0001961911605532604
726.8826475549689,0.0001941087217940932
728.1218472134366,0.00019200927266501227
729.3610468719043,0.00018990715880835339
730.6002465303719,0.00018781250096751073
731.8394461888396,0.00018573246105133793
733.0786458473073,0.0001836721453495391
734.3178455057749,0.00018163520072551922
735.5570451642426,0.00017962421239613253
736.7962448227103,0.0001776409818502715
738.0354444811779,0.00017568672887168445
740.067169350051,0.00017254715561308356
742.0988942189241,0.00016948923546619623
744.1306190877972,0.0001665134015459248
746.1623439566703,0.00016361900210730296
749.4657503409345,0.00015908379298062942
752.7691567251987,0.00015475383602735763
756.072563109463,0.00015062099850564556
759.3759694937272,0.0001466770355695375
762.6793758779914,0.00014291388507816082
765.9827822622557,0.00013932365059200253
771.5361340914488,0.000133656566251105
777.089485920642,0.00012842131404285713
782.6428377498352,0.00012358512950306949
788.1961895790283,0.00011911762115334698
793.7495414082215,0.00011499070609278818
799.3028932374147,0.0001111784632927544
808.1672281699779,0.00010568638643087614
817.0315631025411,0.00010084739659839833
825.8958980351043,9.658399880365398e-05
834.7602329676675,9.282779815578965e-05
843.6245679002308,8.951843246798889e-05
852.488902832794,8.660272126077626e-05
