time,voltage
0.0,-80.0
0.0003984448337938366,-80.00335867065569
0.0019640380018790212,-80.01328853161495
0.005988562823537696,-80.0304339171086
0.01313106174668198,-80.05145255805654
0.024540008019518188,-80.07569891387884
0.035948954292354396,-80.09506209065651
0.0562628778258268,-80.12349553347147
0.08987412792365923,-80.1601386373585
0.1528875688673682,-80.21169830295436
0.21590100981107718,-80.25015504173146
0.27891445075478616,-80.28209765618521
0.34192789169849513,-80.31006140824732
0.45473219422999794,-80.35395061643419
0.5675364967615008,-80.39157497293981
0.7395424767905698,-80.44158206942166
0.9115484568196389,-80.48527387302617
1.083554436848708,-80.52491987805304
1.365801509582858,-80.58448348840498
1.648048582317008,-80.63960647378845
2.2334734669937673,-80.74493719468519
2.8188983516705264,-80.84330830052063
3.4043232363472855,-80.93651433249187
3.9897481210240446,-81.02460055102567
4.575173005700804,-81.10780816745788
5.592261031401415,-81.24230534963708
6.609349057102027,-81.36556319727212
7.626437082802639,-81.4788457435304
9.200069589043608,-81.6363622144168
10.773702095284577,-81.77453318795463
13.212917282085042,-81.9554895177576
15.652132468885508,-82.10214625515549
18.091347655685972,-82.22049674703527
20.530562842486436,-82.31572699744993
22.9697780292869,-82.39217901259644
26.869959093707035,-82.48424502148396
30.77014015812717,-82.54905717861021
34.67032122254731,-82.59515644493436
38.57050228696745,-82.6287966593664
42.470683351387585,-82.6544518025928
46.37086441580772,-82.67524138860233
50.27104548022786,-82.69327615778862
54.171226544648,-82.71001938322414
58.07140760906814,-82.72632534846726
61.97158867348828,-82.742741774559
65.87176973790841,-82.75942122090518
69.77195080232855,-82.77641194052363
73.67213186674869,-82.7935728070101
77.57231293116882,-82.81102018806001
81.47249399558896,-82.82875444805138
85.3726750600091,-82.8466877711227
89.27285612442924,-82.86425212425196
93.17303718884938,-82.88106052379099
97.07321825326952,-82.89690648403987
100.97339931768965,-82.91209999574946
104.8735803821098,-82.92677544951141
108.77376144652993,-82.94070088833618
112.67394251095007,-82.95346145450637
116.57412357537021,-82.96493579865201
120.47430463979035,-82.97541030033909
124.37448570421049,-82.98505894564313
128.27466676863062,-82.99375409743176
132.17484783305076,-83.00136629781375
136.0750288974709,-83.00805909629766
139.97520996189104,-83.0139567728042
143.87539102631118,-83.01900150628836
147.77557209073132,-83.02323335798178
151.67575315515145,-83.02673607703358
155.5759342195716,-83.02960258211739
159.47611528399173,-83.03174931112618
163.37629634841187,-83.03337077943952
167.276477412832,-83.03447001611228
171.17665847725215,-83.03510342461274
175.07683954167229,-83.03543068051772
178.97702060609242,-83.03571297899808
182.87720167051256,-83.03582098284805
186.7773827349327,-83.03551540883734
190.67756379935284,-83.03483566036597
194.57774486377298,-83.03396337046807
198.47792592819312,-83.03300750053853
202.37810699261325,-83.03191237026007
206.2782880570334,-83.030781146547
210.17846912145353,-83.02962631176472
214.07865018587367,-83.02850204833635
217.9788312502938,-83.02722769433052
221.87901231471395,-83.0258626309334
225.77919337913409,-83.02460745947785
229.67937444355422,-83.02358529864587
233.57955550797436,-83.02267826471447
237.4797365723945,-83.02167239148824
241.37991763681464,-83.02057687030417
245.28009870123478,-83.01955120882361
249.18027976565492,-83.01864608896015
253.08046083007505,-83.01775306990523
256.9806418944952,-83.01686352718836
260.8808229589153,-83.01605423481399
264.7810040233354,-83.01530369663564
268.6811850877555,-83.0146118632473
272.58136615217563,-83.0139467283481
276.48154721659574,-83.01339285691651
280.38172828101585,-83.01294352295544
284.28190934543596,-83.01259687293972
288.1820904098561,-83.01219299322307
292.0822714742762,-83.01169010065635
295.9824525386963,-83.01109399569712
299.8826336031164,-83.01063543438434
303.7828146675365,-83.01026536702076
307.6829957319566,-83.00990250376391
311.58317679637673,-83.00937862424816
315.48335786079684,-83.0088332948771
319.38353892521695,-83.0084992659237
323.28371998963706,-83.00843579289192
327.1839010540572,-83.00847983905707
331.0840821184773,-83.0084449585845
334.9842631828974,-83.00832953842678
338.8844442473175,-83.00820930111544
342.7846253117376,-83.00809386667851
346.6848063761577,-83.00799480350113
350.58498744057783,-83.00790391668366
354.48516850499794,-83.00781420027496
358.38534956941805,-83.0076724286503
362.28553063383816,-83.00755106920424
366.1857116982583,-83.00750168253884
370.0858927626784,-83.00754607769473
373.9860738270985,-83.00756617673663
377.8862548915186,-83.00757331790732
381.7864359559387,-83.00760140245188
385.6866170203588,-83.0077391863729
389.58679808477893,-83.00793414958888
393.48697914919904,-83.00807188641755
397.38716021361915,-83.00810089638182
401.28734127803926,-83.00805384134851
405.1875223424594,-83.00800760262598
409.0877034068795,-83.00796586025444
412.9878844712996,-83.00792910951856
416.8880655357197,-83.0079056679358
420.7882466001398,-83.00794761155744
424.6884276645599,-83.00805032034467
428.58860872898003,-83.00815409689027
432.48878979340014,-83.0082081361185
436.38897085782025,-83.00818311675417
440.28915192224036,-83.0081220755619
444.1893329866605,-83.00804612778963
448.0895140510806,-83.00800162594382
451.9896951155007,-83.00793050347319
455.8898761799208,-83.00789220820424
459.7900572443409,-83.00791467344031
463.690238308761,-83.00795406105412
467.59041937318113,-83.00790638773499
471.49060043760124,-83.00777683566253
475.39078150202135,-83.00767235790677
479.29096256644146,-83.00763847793387
483.1911436308616,-83.00758740887225
487.0913246952817,-83.00753664074962
490.9915057597018,-83.00750862754869
494.8916868241219,-83.00749726229537
498.791867888542,-83.00738829972063
502.6920489529621,-83.00721314991748
506.59223001738224,-83.00708997138322
510.49241108180235,-83.0070568249437
514.3925921462225,-83.00709947257643
518.2927732106426,-83.00713651392529
522.1929542750628,-83.00719056272536
526.093135339483,-83.00720357898128
529.9933164039031,-83.0072584622569
532.6985128051267,-83.0073519732493
535.4037092063503,-83.0074433793073
538.1089056075739,-83.00744307345104
540.8141020087975,-83.00737304625514
543.5192984100211,-83.00732567946238
546.2244948112447,-83.00734118868255
548.9296912124682,-83.00736250375364
551.6348876136918,-83.00737592131773
554.3400840149154,-83.00738760940621
557.045280416139,-83.0074234183727
559.7504768173626,-83.00743089531302
562.4556732185862,-83.00744767564711
564.3295112925177,-83.00749073825988
566.2033493664493,-83.00753985025071
568.0771874403808,-83.00755285851416
571.17185446402,-83.00752508433158
574.2665214876592,-83.0075705556628
577.3611885112985,-83.0077060028671
580.4558555349377,-83.00783590225969
583.5505225585769,-83.00789474244421
586.6451895822161,-83.00794004326386
589.7398566058553,-83.00797412868047
592.8345236294945,-83.00799531010783
595.9291906531337,-83.00796923237323
598.0710226581789,-83.00792018329288
600.2128546632241,-83.0078682488694
602.3546866682693,-83.00784804502786
604.4965186733145,-83.0078646463905
606.6383506783598,-83.00789058070342
608.780182683405,-83.0078979225217
610.9220146884502,-83.00789830084602
613.0638466934954,-83.00790693421153
615.2056786985406,-83.0079235683844
617.3475107035858,-83.00794084735936
619.489342708631,-83.00795630028497
622.7517286327459,-83.00797352313371
626.0141145568607,-83.00797524771058
629.2765004809755,-83.00796945801999
632.5388864050904,-83.00795803601301
635.8012723292052,-83.00795232894924
639.06365825332,-83.00794726512909
642.3260441774348,-83.00794893147498
645.5884301015496,-83.00794818705701
648.8508160256645,-83.00795331139041
652.1132019497793,-83.0079543473626
655.3755878738941,-83.00796167170282
658.6379737980089,-83.00796305550932
661.9003597221238,-83.00797148632954
665.1627456462386,-83.00797243108119
668.4251315703534,-83.00796547426839
671.6875174944682,-83.00794433027599
674.9499034185831,-83.0079231514519
678.2122893426979,-83.00790508422806
681.4746752668127,-83.00790064470185
684.7370611909275,-83.00789914176696
687.9994471150424,-83.00789780981229
691.2618330391572,-83.00789220446455
697.6035413755212,-83.00788893497412
700.0,-83.00789238795554
700.0,-83.00789238795554
700.0001306889866,-82.99685650000671
700.0004378036537,-82.97306254645589
700.0012958067431,-82.91746373082937
700.0021538098325,-82.86959359800768
700.0036714048341,-82.79623778093799
700.0062070153745,-82.69601992633977
700.0107213393132,-82.55537876389488
700.015235663252,-82.44429263823702
700.0197499871908,-82.34921767821807
700.0265711971442,-82.22315722993642
700.0333924070976,-82.1135832073401
700.0437672765084,-81.96746967879142
700.0541421459193,-81.84016591830841
700.0699678199649,-81.67073232638414
700.0857934940104,-81.52195273225304
700.1169792388034,-81.2687193566664
700.1481649835964,-81.0469183883704
700.1793507283894,-80.84574374924883
700.2105364731824,-80.66164949938386
700.2417222179754,-80.49198576674519
700.2954095164787,-80.22650808217809
700.349096814982,-79.98632966100926
700.4027841134853,-79.76497584366275
700.4852224146956,-79.45393317573874
700.567660715906,-79.16906464004646
700.697654666515,-78.75895826875563
700.8276486171239,-78.38236389953933
700.9576425677329,-78.02922279955398
701.1670176657855,-77.4950611081867
701.376392763838,-76.99229151867296
701.5857678618905,-76.5130430832286
701.7951429599431,-76.05105483875231
702.0045180579956,-75.60177887315659
702.3403128545647,-74.90234282614603
702.6761076511337,-74.22522396620727
703.0119024477028,-73.56801461757719
703.3476972442719,-72.92846846388308
703.683492040841,-72.30466571246187
704.3294709679589,-71.14459039923138
705.3082782189059,-69.47444435336301
706.287085469853,-67.89310045280423
707.2658927208,-66.38462307571245
708.2446999717471,-64.93480103949246
709.2235072226941,-63.52633238522684
710.2023144736412,-62.13919369104824
711.1811217245883,-60.73096325154961
711.7649486095071,-59.84402363151821
711.9109053307368,-59.60983338729383
712.0568620519665,-59.36583579623272
712.2028187731962,-59.10822004236436
712.3487754944259,-58.830938093982226
712.4947322156556,-58.526599349932816
712.6406889368853,-58.1716270478773
712.6771781171927,-58.06981199544022
712.7136672975001,-57.95824018832107
712.7501564778075,-57.83387197756481
712.7866456581149,-57.69335922180991
712.8231348384223,-57.52942947881113
712.8596240187297,-57.32839931076276
712.8961131990371,-57.064905093452424
712.905235494114,-56.98515267343554
712.9143577891908,-56.89658913816485
712.9234800842677,-56.796874717613356
712.9393272910272,-56.58752288433873
712.9493725686704,-56.42339991011353
712.9594178463135,-56.225109416778366
712.9694631239566,-55.9804254648007
712.9795084015998,-55.672798965301816
712.9855805043516,-55.448344999980534
712.9916526071033,-55.189399811149556
712.9977247098551,-54.892822938624235
713.0037968126069,-54.55775483161172
713.0098689153587,-54.186252840185695
713.0159410181104,-53.783410373262676
713.0220131208622,-53.356564933081366
713.028085223614,-52.91381252224185
713.0341573263657,-52.46249286076829
713.0402294291175,-52.00829717883999
713.0463015318693,-51.555139594173035
713.0523736346211,-51.105488848626585
713.0584457373728,-50.66076917424752
713.0645178401246,-50.221642503737044
713.0705899428764,-49.788186612222695
713.0766620456282,-49.36004445227726
713.0827341483799,-48.93657690472318
713.0888062511317,-48.517006742290526
713.0948783538835,-48.100534585657
713.1009504566352,-47.68642224017328
713.107022559387,-47.27405060938614
713.1130946621388,-46.86296238798852
713.1191667648906,-46.452858141174794
713.1252388676423,-46.04362691952993
713.1313109703941,-45.63534529398438
713.1373830731459,-45.22826844086358
713.1434551758977,-44.82280340464018
713.1495272786494,-44.41948875319614
713.1555993814012,-44.01896930370787
713.161671484153,-43.621970105215254
713.1677435869047,-43.2292653085439
713.1738156896565,-42.84164817535475
713.1798877924083,-42.459902410732326
713.1859598951601,-42.08476927859868
713.1920319979118,-41.71695073406482
713.1981041006636,-41.35707068873051
713.2041762034154,-41.00566023614875
713.2102483061672,-40.66315194828894
713.2163204089189,-40.32988252941065
713.2223925116707,-40.006090296840576
713.2284646144225,-39.691912127012124
713.2345367171743,-39.38739553482597
713.240608819926,-39.09250440324422
713.2466809226778,-38.807119643553996
713.2527530254296,-38.5310488759741
713.2588251281813,-38.264039332531105
713.2626386606826,-38.10084983204243
713.2664521931838,-37.9410325100613
713.270265725685,-37.784495385267654
713.2740792581862,-37.631142134253835
713.2778927906875,-37.4808724490271
713.2817063231887,-37.3335822997458
713.2855198556899,-37.18916434751695
713.2893333881912,-37.047508489175954
713.2931469206924,-36.90850242507485
713.2969604531936,-36.772032174899046
713.3007739856948,-36.63798252815056
713.3045875181961,-36.506237441409155
713.3084010506973,-36.37668039251306
713.3122145831985,-36.24919469514866
713.3160281156997,-36.12366377507242
713.319841648201,-35.99997140962344
713.3236551807022,-35.878001932677726
713.3274687132034,-35.757640407185576
713.3312822457046,-35.63877276729753
713.3350957782059,-35.52128593202802
713.3389093107071,-35.40506795686247
713.3427228432083,-35.290007973107656
713.3465363757095,-35.17599613049943
713.3503499082108,-35.06292391319654
713.354163440712,-34.950684071635614
713.3579769732132,-34.83917049882121
713.3617905057145,-34.72827818056842
713.3656040382157,-34.61790317392681
713.3694175707169,-34.50794255795696
713.3732311032181,-34.398294351845074
713.3770446357194,-34.28885741608369
713.3808581682206,-34.17953134506485
713.3846717007218,-34.07021635070705
713.388485233223,-33.96081313531874
713.3922987657243,-33.851222753576124
713.3961122982255,-33.741346464371304
713.3999258307267,-33.63108557308306
713.4037393632279,-33.52034126444362
713.4075528957292,-33.40901442601121
713.4113664282304,-33.297005462214614
713.4151799607316,-33.18421399247781
713.4189934932328,-33.07053906967374
713.4228070257341,-32.95587836625493
713.4266205582353,-32.840128251919495
713.4304340907365,-32.72318358428031
713.4342476232378,-32.60493742484863
713.438061155739,-32.485280757146015
713.4418746882402,-32.364102217173595
713.4456882207414,-32.24128781278932
713.4495017532427,-32.11672062323509
713.4533152857439,-31.990280480486625
713.4571288182451,-31.86184363400345
713.4609423507463,-31.731282397668952
713.4647558832476,-31.598464776740297
713.4685694157488,-31.463254072879785
713.47238294825,-31.32550846552241
713.4761964807512,-31.185080567671744
713.4800100132525,-31.041816953949088
713.4838235457537,-30.89555765849421
713.4876370782549,-30.746135640119757
713.4914506107561,-30.59337578072912
713.4952641432574,-30.437095837274406
713.4990776757586,-30.277103907481038
713.5028912082598,-30.11319781216612
713.506704740761,-29.94516656441837
713.5105182732623,-29.772787172371242
713.5143318057635,-29.5958244793832
713.5181453382647,-29.414030524773597
713.521958870766,-29.227143542056503
713.5257724032672,-29.03488680669164
713.5295859357684,-28.83696746746024
713.5333994682696,-28.633075329388337
713.5372130007709,-28.422881548240472
713.5410265332721,-28.20603722063943
713.5448400657733,-27.98217186729536
713.5486535982745,-27.750891806159817
713.5524671307758,-27.511778409545805
713.556280663277,-27.264386238669854
713.5600941957782,-27.008241050013943
713.5639077282794,-26.742837669200462
713.5677212607807,-26.467635706076035
713.5715347932819,-26.182064368271046
713.5753483257831,-25.885511491736192
713.5791618582844,-25.57732335128549
713.5829753907856,-25.256803119145776
713.5867889232868,-24.923208000834375
713.590602455788,-24.57574588170897
713.5944159882893,-24.21357219942485
713.5982295207905,-23.83578700130991
713.6020430532917,-23.441432104324257
713.6058565857929,-23.029488395049075
713.6096701182942,-22.598873406940964
713.6134836507954,-22.148439344852967
713.6172971832966,-21.676971752869065
713.6211107157978,-21.18318906473248
713.6249242482991,-20.66574333608789
713.6287377808003,-20.123220562095927
713.6325513133015,-19.554151352923732
713.6363648458027,-18.957011801568864
713.640178378304,-18.330232813608855
713.6439919108052,-17.67222079217404
713.6478054433064,-16.981360872504403
713.6516189758077,-16.256071069383854
713.6554325083089,-15.494786005260748
713.6592460408101,-14.69604202899826
713.6630595733113,-13.858503416480751
713.6668731058126,-12.981017972037725
713.6706866383138,-12.062679831397123
713.674500170815,-11.10290523973929
713.6783137033162,-10.10151420992313
713.6821272358175,-9.058817677375101
713.6859407683187,-7.975706969216052
713.6897543008199,-6.853741487156186
713.6935678333211,-5.695228533265233
713.6973813658224,-4.503288151806854
713.7011948983236,-3.281895137235922
713.7050084308248,-2.0358903565032564
713.708821963326,-0.7709543997568087
713.7126354958273,0.5064614751886871
713.7164490283285,1.7892491150056546
713.7202625608297,3.0697723813157025
713.724076093331,4.3401606442226885
713.7278896258322,5.5924313540437485
713.7317031583334,6.818671788441544
713.7355166908346,8.011404207977046
713.7393302233359,9.16373983050052
713.7431437558371,10.269550534238634
713.7469572883383,11.323602865668166
713.7507708208395,12.32165011654244
713.7545843533408,13.260471074640357
713.758397885842,14.137860038882327
713.7622114183432,14.952576178072203
713.7660249508444,15.704261631216132
713.7698384833457,16.39333794574745
713.7736520158469,17.020890240733962
713.7774655483481,17.58854753029411
713.7812790808493,18.09836607749399
713.7850926133506,18.552720826677337
713.7889061458518,18.954208191655923
713.792719678353,19.305561935061462
713.7965332108542,19.609584879139952
713.8003467433555,19.869082820825874
713.8041602758567,20.08683132798947
713.8079738083579,20.26553554180249
713.8117873408592,20.407804541944433
713.8156008733604,20.516117883512432
713.8194144058616,20.592880586600387
713.8232279383628,20.640328085020684
713.8270414708641,20.660563463784055
713.8308550033653,20.65556601664125
713.8346685358665,20.62718948600353
713.8384820683677,20.57716403654562
713.842295600869,20.507101448785235
713.8461091333702,20.418501497045302
713.8499226658714,20.31275856213458
713.8537361983726,20.19116821072991
713.8575497308739,20.05493366337784
713.8613632633751,19.90517207777217
713.8651767958763,19.74292057459946
713.8689903283775,19.56914195622734
713.8728038608788,19.38472047406551
713.87661739338,19.190495507356072
713.8804309258812,18.987250366622764
713.8842444583825,18.775692247343123
713.8880579908837,18.55648118404323
713.8918715233849,18.330235272465323
713.8956850558861,18.097530131224264
713.8994985883874,17.858900719269954
713.9033121208886,17.614844316055926
713.9071256533898,17.365823471590147
713.910939185891,17.11226864095364
713.9147527183923,16.854580549154495
713.9185662508935,16.593132360286734
713.9223797833947,16.328271683522143
713.926193315896,16.060322427413116
713.9300068483972,15.789586512748404
713.9338203808984,15.516345455537738
713.9376339133996,15.240861830621116
713.9414474459008,14.963380624729364
713.9452609784021,14.684130486850371
713.9490745109033,14.40332331830334
713.9528880434045,14.12115999429997
713.9567015759058,13.837828732270243
713.960515108407,13.553502123506602
713.9643286409082,13.268341975608523
713.9681421734094,12.982500271792686
713.9719557059107,12.696119254912727
713.9757692384119,12.409331873501415
713.9795827709131,12.122262393911768
713.9833963034143,11.835026993376381
713.9872098359156,11.547734290585643
713.9910233684168,11.260485823678762
713.994836900918,10.973376489261707
713.9986504334192,10.686494948365095
714.0024639659205,10.39992400155869
714.0062774984217,10.113740935381864
714.0100910309229,9.828017842633017
714.0139045634241,9.542821918922565
714.0177180959254,9.25821573756247
714.0215316284266,8.974257504622667
714.0253451609278,8.69100118079287
